"time","v"
0,-88.0145
0.1,-80.0658710733512
0.2,-72.1538539674525
0.3,-64.2271514492457
0.4,-56.2691728258746
0.5,-48.2369439148235
0.6,-47.9199982651762
0.7,-47.0590495973393
0.8,-45.4459345002471
0.9,-42.7960895210735
1,-38.5093260575819
1.1,-31.0709160564272
1.2,-16.6280076495252
1.3,7.96565960817135
1.4,24.9198475562975
1.5,28.7741868303177
1.6,30.1318549614192
1.7,31.1971645738205
1.8,32.1540738832527
1.9,33.0202180090373
2,33.8031630047117
2.1,34.5098861359042
2.2,35.1471578604645
2.3,35.7213236008968
2.4,36.2383768697632
2.5,36.7038802961271
2.6,37.12286986541
2.7,37.4999953951959
2.8,37.8394559114537
2.9,38.1450621010628
3,38.4201754185074
3.1,38.6679037015286
3.2,38.8909775579968
3.3,39.0918517172613
3.4,39.2727230931488
3.5,39.4355506343376
3.6,39.5820914818347
3.7,39.7139183620721
3.8,39.8324390281662
3.9,39.9389112754496
4,40.0345114828126
4.1,40.1202082744052
4.2,40.1969360823553
4.3,40.265528685147
4.4,40.3267320376371
4.5,40.3812062824395
4.6,40.4295893468867
4.7,40.4724127752353
4.8,40.51018611124
4.9,40.5433436615571
5,40.5723141142051
5.1,40.5974664647795
5.2,40.6191331896544
5.3,40.6376429128193
5.4,40.6532586922512
5.5,40.6662398977221
5.6,40.6768265012347
5.7,40.685234829982
5.8,40.691656353682
5.9,40.6962658528222
6,40.6992259583905
6.1,40.7006875703357
6.2,40.7007888458616
6.3,40.6996553882426
6.4,40.6974018806589
6.5,40.694133725052
6.6,40.6899479032409
6.7,40.684933626987
6.8,40.6791729703868
6.9,40.6727413179877
7,40.6657079602401
7.1,40.6581367254492
7.2,40.6500863924323
7.3,40.641611107721
7.4,40.632760802724
7.5,40.6235815078145
7.6,40.6141156607039
7.7,40.6044024027805
7.8,40.5944778459631
7.9,40.5843753050289
8,40.5741255138525
8.1,40.5637568283009
8.2,40.5532954067851
8.3,40.5427653731295
8.4,40.5321889699214
8.5,40.5215866994266
8.6,40.5109774494898
8.7,40.5003786093836
8.8,40.4898061783242
8.9,40.4792748645237
9,40.468798175045
9.1,40.4583884992236
9.2,40.4480571861177
9.3,40.4378146154611
9.4,40.4276702630011
9.5,40.4176327610599
9.6,40.407709954647
9.7,40.3979089534208
9.8,40.3882361798244
9.9,40.3786974137604
10,40.3692978341084
10.1,40.3600420573567
10.2,40.3509341735936
10.3,40.3419777800577
10.4,40.3331760124359
10.5,40.3245315741071
10.6,40.3160467635037
10.7,40.3077234997295
10.8,40.2995633465605
10.9,40.291567534962
11,40.283736984234
11.1,40.2760723218843
11.2,40.2685739023179
11.3,40.2612418244397
11.4,40.2540759482396
11.5,40.2470759104196
11.6,40.2402411391432
11.7,40.2335708679637
11.8,40.2270641489829
11.9,40.2207198652874
12,40.2145367427078
12.1,40.2085133609459
12.2,40.2026481641054
12.3,40.1969394706635
12.4,40.1913854829138
12.5,40.1859842959115
12.6,40.1807339059483
12.7,40.1756322185838
12.8,40.1706770562563
12.9,40.1658661654951
13,40.1611972237562
13.1,40.1566678458987
13.2,40.1522755903226
13.3,40.1480179647824
13.4,40.1438924318951
13.5,40.1398964143535
13.6,40.1360272998621
13.7,40.1322824458084
13.8,40.1286591836811
13.9,40.1251548232477
14,40.1217666565021
14.1,40.1184919613927
14.2,40.1153280053422
14.3,40.112272048567
14.4,40.1093213472068
14.5,40.106473156272
14.6,40.1037247324171
14.7,40.1010733365495
14.8,40.0985162362784
14.9,40.0960507082145
15,40.0936740401237
15.1,40.0913835329449
15.2,40.0891765026748
15.3,40.0870502821289
15.4,40.0850022225819
15.5,40.0830296952946
15.6,40.0811300929322
15.7,40.0793008308781
15.8,40.0775393484506
15.9,40.075843110024
16,40.0742096060612
16.1,40.0726363540604
16.2,40.0711208994214
16.3,40.069660816234
16.4,40.0682537079939
16.5,40.0668972082482
16.6,40.0655889811756
16.7,40.0643267221028
16.8,40.0631081579624
16.9,40.0619310476938
17,40.0607931825905
17.1,40.0596923865968
17.2,40.0586265165574
17.3,40.0575934624203
17.4,40.0565911473979
17.5,40.0556175280876
17.6,40.0546705945537
17.7,40.0537483703739
17.8,40.0528489126517
17.9,40.0519703119971
18,40.0511106924776
18.1,40.0502682115403
18.2,40.0494410599089
18.3,40.0486274614546
18.4,40.0478256730455
18.5,40.047033984373
18.6,40.0462507177591
18.7,40.0454742279445
18.8,40.0447029018596
18.9,40.0439351583792
19,40.0431694480621
19.1,40.0424042528774
19.2,40.0416380859177
19.3,40.0408694911005
19.4,40.0400970428595
19.5,40.0393193458257
19.6,40.0385350344995
19.7,40.0377427729148
19.8,40.0369412542967
19.9,40.0361292007111
20,40.0353053627102
20.1,40.0344685189718
20.2,40.0336174759346
20.3,40.0327510674294
20.4,40.0318681543074
20.5,40.0309676240654
20.6,40.030048390469
20.7,40.0291093931739
20.8,40.0281495973462
20.9,40.0271679932815
21,40.0261635960237
21.1,40.0251354449835
21.2,40.0240826035582
21.3,40.0230041587501
21.4,40.0218992207884
21.5,40.0207669227496
21.6,40.0196064201819
21.7,40.0184168907295
21.8,40.0171975337597
21.9,40.0159475699922
22,40.0146662411309
22.1,40.0133528094975
22.2,40.012006557669
22.3,40.0106267881174
22.4,40.0092128228525
22.5,40.0077640030688
22.6,40.0062796887943
22.7,40.0047592585439
22.8,40.0032021089761
22.9,40.0016076545533
23,39.9999753272056
23.1,39.9983045759992
23.2,39.9965948668076
23.3,39.9948456819879
23.4,39.9930565200601
23.5,39.9912268953916
23.6,39.9893563378846
23.7,39.9874443926683
23.8,39.9854906197956
23.9,39.983494593943
24,39.9814559041157
24.1,39.9793741533563
24.2,39.9772489584581
24.3,39.9750799496822
24.4,39.9728667704794
24.5,39.9706090772159
24.6,39.9683065389033
24.7,39.9659588369329
24.8,39.9635656648142
24.9,39.9611267279173
25,39.9586417432202
25.1,39.956110439059
25.2,39.9535325548837
25.3,39.9509078410164
25.4,39.9482360584155
25.5,39.9455169784419
25.6,39.9427503826308
25.7,39.9399360624666
25.8,39.9370738191619
25.9,39.9341634634405
26,39.9312048153239
26.1,39.9281977039223
26.2,39.9251419672286
26.3,39.9220374519163
26.4,39.9188840131417
26.5,39.9156815143487
26.6,39.9124298270781
26.7,39.9091288307799
26.8,39.9057784126294
26.9,39.9023784673465
27,39.8989288970186
27.1,39.8954296109269
27.2,39.8918805253759
27.3,39.8882815635261
27.4,39.88463265523
27.5,39.8809337368715
27.6,39.8771847512083
27.7,39.873385647217
27.8,39.8695363799419
27.9,39.8656369103464
28,39.8616872051671
28.1,39.8576872367718
28.2,39.8536369830191
28.3,39.8495364271218
28.4,39.8453855575122
28.5,39.8411843677111
28.6,39.8369328561989
28.7,39.8326310262891
28.8,39.828278886005
28.9,39.8238764479586
29,39.8194237292321
29.1,39.8149207512616
29.2,39.8103675397239
29.3,39.8057641244249
29.4,39.8011105391905
29.5,39.7964068217606
29.6,39.7916530136841
29.7,39.7868491602172
29.8,39.781995310223
29.9,39.7770915160741
30,39.7721378335565
30.1,39.7671343217764
30.2,39.7620810430678
30.3,39.7569780629036
30.4,39.7518254498076
30.5,39.7466232752686
30.6,39.7413716136566
30.7,39.7360705421408
30.8,39.7307201406093
30.9,39.7253204915905
31,39.7198716801766
31.1,39.7143737939484
31.2,39.708826922902
31.3,39.7032311593772
31.4,39.6975865979872
31.5,39.6918933355504
31.6,39.6861514710232
31.7,39.6803611054345
31.8,39.6745223418224
31.9,39.6686352851706
32,39.6627000423487
32.1,39.6567167220513
32.2,39.6506854347407
32.3,39.6446062925896
32.4,39.6384794094255
32.5,39.6323049006765
32.6,39.6260828833184
32.7,39.6198134758227
32.8,39.6134967981062
32.9,39.6071329714819
33,39.6007221186103
33.1,39.594264363453
33.2,39.5877598312262
33.3,39.5812086483564
33.4,39.5746109424366
33.5,39.5679668421833
33.6,39.5612764773954
33.7,39.5545399789134
33.8,39.5477574785794
33.9,39.5409291091994
34,39.5340550045045
34.1,39.5271352991153
34.2,39.520170128505
34.3,39.5131596289653
34.4,39.506103937572
34.5,39.4990031921517
34.6,39.4918575312497
34.7,39.4846670940983
34.8,39.4774320205862
34.9,39.4701524512284
35,39.4628285271371
35.1,39.4554603899934
35.2,39.4480481820196
35.3,39.4405920459519
35.4,39.4330921250146
35.5,39.4255485628946
35.6,39.4179615037159
35.7,39.4103310920162
35.8,39.4026574727225
35.9,39.3949407911289
36,39.3871811928741
36.1,39.3793788239191
36.2,39.3715338305271
36.3,39.3636463592422
36.4,39.3557165568696
36.5,39.3477445704565
36.6,39.3397305472729
36.7,39.3316746347933
36.8,39.323576980679
36.9,39.315437732761
37,39.3072570390226
37.1,39.2990350475836
37.2,39.2907719066844
37.3,39.2824677646701
37.4,39.2741227699763
37.5,39.2657370711142
37.6,39.2573108166565
37.7,39.248844155224
37.8,39.2403372354721
37.9,39.2317902060782
38,39.2232032157292
38.1,39.2145764131096
38.2,39.2059099468895
38.3,39.1972039657136
38.4,39.1884586181901
38.5,39.1796740528805
38.6,39.1708504182888
38.7,39.1619878628518
38.8,39.1530865349297
38.9,39.1441465827969
39,39.1351681546326
39.1,39.1261513985125
39.2,39.1170964624006
39.3,39.1080034941406
39.4,39.0988726414488
39.5,39.0897040519061
39.6,39.0804978729509
39.7,39.0712542518725
39.8,39.0619733358037
39.9,39.052655271715
40,39.043300206408
40.1,39.0339082865097
40.2,39.0244796584664
40.3,39.0150144685387
40.4,39.0055128627957
40.5,38.9959749871101
40.6,38.9864009871536
40.7,38.9767910083919
40.8,38.9671451960804
40.9,38.9574636952597
41,38.9477466507521
41.1,38.937994207157
41.2,38.9282065088477
41.3,38.9183836999677
41.4,38.9085259244272
41.5,38.8986333259
41.6,38.8887060478208
41.7,38.8787442333816
41.8,38.8687480255298
41.9,38.8587175669649
42,38.8486530001365
42.1,38.838554467242
42.2,38.8284221102241
42.3,38.8182560707693
42.4,38.8080564903056
42.5,38.797823510001
42.6,38.7875572707615
42.7,38.7772579132302
42.8,38.7669255777853
42.9,38.7565604045391
43,38.7461625333367
43.1,38.7357321037551
43.2,38.725269255102
43.3,38.7147741264153
43.4,38.7042468564618
43.5,38.6936875837369
43.6,38.6830964464641
43.7,38.6724735825941
43.8,38.6618191298047
43.9,38.6511332255004
44,38.6404160068121
44.1,38.629667610597
44.2,38.6188881734385
44.3,38.6080778316461
44.4,38.5972367212556
44.5,38.5863649780291
44.6,38.5754627374551
44.7,38.564530134749
44.8,38.5535673048533
44.9,38.5425743824378
45,38.5315515019003
45.1,38.5204987973668
45.2,38.5094164026924
45.3,38.4983044514615
45.4,38.4871630769888
45.5,38.4759924123197
45.6,38.4647925902311
45.7,38.4535637432322
45.8,38.4423060035655
45.9,38.4310195032073
46,38.4197043738688
46.1,38.4083607469972
46.2,38.3969887537762
46.3,38.3855885251276
46.4,38.3741601917118
46.5,38.362703883929
46.6,38.3512197319208
46.7,38.3397078655705
46.8,38.3281684145048
46.9,38.316601508095
47,38.3050072754577
47.1,38.2933858454568
47.2,38.2817373467038
47.3,38.27006190756
47.4,38.2583596561371
47.5,38.246630720299
47.6,38.2348752276624
47.7,38.2230933055992
47.8,38.2112850812368
47.9,38.1994506814601
48,38.1875902329126
48.1,38.175703861998
48.2,38.1637916948813
48.3,38.1518538574904
48.4,38.1398904755175
48.5,38.1279016744204
48.6,38.1158875794242
48.7,38.1038483155224
48.8,38.0917840074784
48.9,38.079694779827
49,38.0675807568761
49.1,38.0554420627076
49.2,38.0432788211793
49.3,38.031091155926
49.4,38.0188791903612
49.5,38.0066430476786
49.6,37.9943828508531
49.7,37.9820987226427
49.8,37.9697907855897
49.9,37.9574591620223
50,37.9451039740557
50.1,37.9327253435938
50.2,37.9203233923307
50.3,37.9078982417518
50.4,37.8954500131353
50.5,37.8829788275537
50.6,37.8704848058752
50.7,37.8579680687647
50.8,37.8454287366859
50.9,37.8328669299018
51,37.8202827684767
51.1,37.8076763722771
51.2,37.7950478609734
51.3,37.782397354041
51.4,37.7697249707614
51.5,37.7570308302239
51.6,37.7443150513267
51.7,37.731577752778
51.8,37.7188190530975
51.9,37.7060390706173
52,37.6932379234835
52.1,37.6804157296573
52.2,37.667572606916
52.3,37.6547086728541
52.4,37.6418240448849
52.5,37.6289188402412
52.6,37.6159931759768
52.7,37.6030471689671
52.8,37.5900809359106
52.9,37.5770945933299
53,37.5640882575726
53.1,37.5510620448125
53.2,37.5380160710504
53.3,37.5249504521154
53.4,37.5118653036655
53.5,37.4987607411889
53.6,37.4856368800047
53.7,37.4724938352641
53.8,37.4593317219509
53.9,37.4461506548826
54,37.4329507487112
54.1,37.4197321179243
54.2,37.4064948768455
54.3,37.3932391396353
54.4,37.3799650202922
54.5,37.366672632653
54.6,37.3533620903937
54.7,37.3400335070306
54.8,37.3266869959201
54.9,37.3133226702603
55,37.2999406430911
55.1,37.286541027295
55.2,37.2731239355976
55.3,37.2596894805683
55.4,37.2462377746207
55.5,37.2327689300134
55.6,37.2192830588501
55.7,37.2057802730807
55.8,37.1922606845009
55.9,37.1787244047535
56,37.1651715453284
56.1,37.1516022175629
56.2,37.1380165326425
56.3,37.1244146016006
56.4,37.1107965353195
56.5,37.0971624445303
56.6,37.0835124398134
56.7,37.0698466315985
56.8,37.0561651301651
56.9,37.0424680456427
57,37.0287554880106
57.1,37.0150275670986
57.2,37.0012843925868
57.3,36.9875260740061
57.4,36.9737527207376
57.5,36.9599644420133
57.6,36.9461613469161
57.7,36.9323435443796
57.8,36.9185111431879
57.9,36.9046642519764
58,36.8908029792309
58.1,36.8769274332879
58.2,36.8630377223345
58.3,36.8491339544083
58.4,36.8352162373974
58.5,36.8212846790398
58.6,36.8073393869238
58.7,36.7933804684873
58.8,36.779408031018
58.9,36.7654221816528
59,36.7514230273778
59.1,36.7374106750279
59.2,36.7233852312863
59.3,36.7093468026847
59.4,36.6952954956023
59.5,36.6812314162658
59.6,36.6671546707491
59.7,36.6530653649726
59.8,36.6389636047028
59.9,36.624849495552
60,36.6107231429776
60.1,36.596584652282
60.2,36.5824341286114
60.3,36.5682716769559
60.4,36.5540974021487
60.5,36.5399114088652
60.6,36.525713801623
60.7,36.5115046847808
60.8,36.4972841625377
60.9,36.4830523389331
61,36.4688093178452
61.1,36.4545552029911
61.2,36.4402900979253
61.3,36.4260141060396
61.4,36.411727330562
61.5,36.3974298745557
61.6,36.3831218409189
61.7,36.3688033323834
61.8,36.354474451514
61.9,36.3401353007077
62,36.3257859821925
62.1,36.3114265980269
62.2,36.2970572500986
62.3,36.2826780401239
62.4,36.2682890696465
62.5,36.2538904400365
62.6,36.2394822524896
62.7,36.2250646080261
62.8,36.2106376074894
62.9,36.1962013515456
63,36.1817559406822
63.1,36.1673014752065
63.2,36.1528380552455
63.3,36.1383657807439
63.4,36.1238847514633
63.5,36.1093950669813
63.6,36.0948968266898
63.7,36.0803901297944
63.8,36.0658750753126
63.9,36.0513517620731
64,36.0368202887145
64.1,36.0222807536835
64.2,36.0077332552346
64.3,35.993177891428
64.4,35.9786147601286
64.5,35.9640439590049
64.6,35.9494655855274
64.7,35.9348797369674
64.8,35.9202865103957
64.9,35.9056860026812
65,35.8910783104894
65.1,35.8764635302812
65.2,35.8618417583116
65.3,35.8472130906279
65.4,35.8325776230688
65.5,35.8179354512624
65.6,35.8032866706254
65.7,35.7886313763611
65.8,35.7739696634581
65.9,35.7593016266891
66,35.744627360609
66.1,35.7299469595537
66.2,35.7152605176383
66.3,35.7005681287561
66.4,35.6858698865765
66.5,35.6711658845437
66.6,35.6564562158752
66.7,35.6417409735604
66.8,35.6270202503586
66.9,35.6122941387977
67,35.5975627311726
67.1,35.5828261195438
67.2,35.5680843957354
67.3,35.5533376513337
67.4,35.5385859776856
67.5,35.523829465897
67.6,35.5090682068312
67.7,35.494302291107
67.8,35.4795318090975
67.9,35.464756850928
68,35.4499775064748
68.1,35.435193865363
68.2,35.4204060169654
68.3,35.4056140504004
68.4,35.3908180545306
68.5,35.3760181179608
68.6,35.3612143290368
68.7,35.3464067758433
68.8,35.3315955462022
68.9,35.3167807276713
69,35.3019624075421
69.1,35.2871406728386
69.2,35.272315610315
69.3,35.2574873064544
69.4,35.2426558474673
69.5,35.2278213192891
69.6,35.2129838075792
69.7,35.1981433977188
69.8,35.1833001748094
69.9,35.1684542236709
70,35.1536056288399
70.1,35.1387544745682
70.2,35.1239008448209
70.3,35.1090448232745
70.4,35.0941864933155
70.5,35.0793259380385
70.6,35.0644632402445
70.7,35.0495984824391
70.8,35.0347317468309
70.9,35.0198631153298
71,35.0049926695448
71.1,34.9901204907832
71.2,34.975246660048
71.3,34.9603712580366
71.4,34.9454943651389
71.5,34.9306160614359
71.6,34.9157364266976
71.7,34.9008555403815
71.8,34.8859734816308
71.9,34.8710903292729
72,34.8562061618174
72.1,34.8413210574546
72.2,34.8264350940538
72.3,34.8115483491614
72.4,34.7966608999995
72.5,34.7817728234642
72.6,34.7668841961237
72.7,34.7519950942168
72.8,34.737105593651
72.9,34.7222157700015
73,34.7073256985085
73.1,34.6924354540766
73.2,34.6775451112725
73.3,34.6626547443236
73.4,34.6477644271161
73.5,34.6328742331941
73.6,34.617984235757
73.7,34.6030945076588
73.8,34.5882051214057
73.9,34.5733161491553
74,34.5584276627142
74.1,34.5435397335373
74.2,34.5286524327255
74.3,34.5137658310245
74.4,34.498879998823
74.5,34.4839950061517
74.6,34.4691109226811
74.7,34.4542278177204
74.8,34.4393457602158
74.9,34.4244648187494
75,34.4095850615369
75.1,34.3947065564269
75.2,34.3798293708991
75.3,34.3649535720629
75.4,34.3500792266558
75.5,34.3352064010423
75.6,34.3203351612121
75.7,34.3054655727788
75.8,34.2905977009788
75.9,34.2757316106695
76,34.2608673663281
76.1,34.2460050320502
76.2,34.2311446715485
76.3,34.2162863481514
76.4,34.2014301248017
76.5,34.1865760640553
76.6,34.1717242280799
76.7,34.1568746786536
76.8,34.1420274771637
76.9,34.1271826846057
77,34.1123403615814
77.1,34.0975005682985
77.2,34.0826633645685
77.3,34.0678288098064
77.4,34.0529969630287
77.5,34.0381678828527
77.6,34.0233416274953
77.7,34.0085182547716
77.8,33.9936978220941
77.9,33.9788803864713
78,33.9640660045068
78.1,33.949254732398
78.2,33.9344466259354
78.3,33.919641740501
78.4,33.9048401310679
78.5,33.8900418521987
78.6,33.8752469580448
78.7,33.8604555023454
78.8,33.8456675384264
78.9,33.8308831191998
79,33.816102297162
79.1,33.8013251243937
79.2,33.7865516525587
79.3,33.7717819329028
79.4,33.757016016253
79.5,33.7422539530171
79.6,33.7274957931821
79.7,33.7127415863141
79.8,33.6979913815569
79.9,33.6832452276319
80,33.6685031728364
80.1,33.6537652650439
80.2,33.6390315517025
80.3,33.6243020798347
80.4,33.6095768960365
80.5,33.5948560464769
80.6,33.5801395768968
80.7,33.5654275326091
80.8,33.5507199584973
80.9,33.5360168990155
81,33.5213183981874
81.1,33.5066244996061
81.2,33.4919352464332
81.3,33.4772506813985
81.4,33.4625708467995
81.5,33.4478957845008
81.6,33.4332255359336
81.7,33.4185601420955
81.8,33.4038996435497
81.9,33.3892440804251
82,33.3745934924153
82.1,33.3599479187786
82.2,33.3453073983377
82.3,33.3306719694792
82.4,33.3160416701532
82.5,33.3014165378734
82.6,33.2867966097163
82.7,33.2721819223214
82.8,33.2575725118908
82.9,33.2429684141888
83,33.228369664542
83.1,33.2137762978389
83.2,33.1991883485301
83.3,33.1846058506276
83.4,33.1700288377052
83.5,33.1554573428982
83.6,33.1408913989032
83.7,33.1263310379782
83.8,33.1117762919428
83.9,33.0972271921776
84,33.0826837696247
84.1,33.0681460547876
84.2,33.0536140777311
84.3,33.0390878680815
84.4,33.0245674550268
84.5,33.0100528673164
84.6,32.9955441332618
84.7,32.9810412807362
84.8,32.9665443371751
84.9,32.9520533295762
85,32.9375682844996
85.1,32.9230892280683
85.2,32.9086161859682
85.3,32.8941491834486
85.4,32.8796882453219
85.5,32.8652333959649
85.6,32.8507846593181
85.7,32.8363420588867
85.8,32.8219056177409
85.9,32.8074753585159
86,32.7930513034128
86.1,32.7786334741986
86.2,32.7642218922069
86.3,32.7498165783384
86.4,32.7354175530611
86.5,32.7210248364112
86.6,32.7066384479932
86.7,32.6922584069809
86.8,32.6778847321174
86.9,32.6635174417163
87,32.6491565536618
87.1,32.6348020854096
87.2,32.6204540539875
87.3,32.6061124759959
87.4,32.5917773676086
87.5,32.5774487445736
87.6,32.5631266222136
87.7,32.548811015427
87.8,32.5345019386882
87.9,32.5201994060489
88,32.5059034311385
88.1,32.4916140271653
88.2,32.4773312069167
88.3,32.4630549827608
88.4,32.4487853666466
88.5,32.4345223701054
88.6,32.4202660042514
88.7,32.4060162797826
88.8,32.391773206982
88.9,32.3775367957181
89,32.3633070554465
89.1,32.3490839952103
89.2,32.3348676236414
89.3,32.3206579489615
89.4,32.3064549789831
89.5,32.2922587211105
89.6,32.2780691823411
89.7,32.2638863692662
89.8,32.2497102880722
89.9,32.2355409445419
90,32.2213783440555
90.1,32.2072224915918
90.2,32.1930733917291
90.3,32.178931048647
90.4,32.164795466127
90.5,32.1506666475541
90.6,32.1365445959178
90.7,32.1224293138136
90.8,32.108320803444
90.9,32.0942190666201
91,32.0801241047626
91.1,32.0660359189034
91.2,32.0519545096866
91.3,32.0378798773701
91.4,32.0238120218269
91.5,32.0097509425467
91.6,31.9956966386367
91.7,31.9816491088236
91.8,31.9676083514548
91.9,31.9535743644999
92,31.9395471455519
92.1,31.925526691829
92.2,31.9115130001759
92.3,31.8975060670655
92.4,31.8835058885999
92.5,31.8695124605125
92.6,31.8555257781694
92.7,31.8415458365706
92.8,31.8275726303519
92.9,31.8136061537864
93,31.7996464007861
93.1,31.7856933649034
93.2,31.7717470393328
93.3,31.7578074169124
93.4,31.743874490126
93.5,31.7299482511038
93.6,31.7160286916253
93.7,31.7021158031198
93.8,31.6882095766688
93.9,31.6743100030076
94,31.6604170725268
94.1,31.646530775274
94.2,31.632651100956
94.3,31.6187780389398
94.4,31.6049115782549
94.5,31.5910517075952
94.6,31.5771984153199
94.7,31.5633516894564
94.8,31.5495115177011
94.9,31.5356778874222
95,31.5218507856603
95.1,31.5080301991315
95.2,31.4942161142283
95.3,31.4804085170217
95.4,31.4666073932634
95.5,31.4528127283871
95.6,31.4390245075108
95.7,31.4252427154385
95.8,31.4114673366619
95.9,31.3976983553628
96,31.3839357554146
96.1,31.3701795203841
96.2,31.3564296335339
96.3,31.3426860778239
96.4,31.3289488359135
96.5,31.3152178901632
96.6,31.3014932226371
96.7,31.2877748151042
96.8,31.2740626490409
96.9,31.2603567056328
97,31.2466569657763
97.1,31.2329634100815
97.2,31.219276018873
97.3,31.2055947721928
97.4,31.1919196498021
97.5,31.178250631183
97.6,31.1645876955409
97.7,31.1509308218062
97.8,31.1372799886365
97.9,31.1236351744186
98,31.1099963572706
98.1,31.0963635150439
98.2,31.082736625325
98.3,31.0691156654379
98.4,31.0555006124461
98.5,31.0418914431543
98.6,31.0282881341112
98.7,31.0146906616105
98.8,31.0010990016941
98.9,30.9875131301533
99,30.9739330225314
99.1,30.9603586541256
99.2,30.9467899999888
99.3,30.9332270349324
99.4,30.9196697335276
99.5,30.9061180701081
99.6,30.8925720187718
99.7,30.879031553383
99.8,30.8654966475747
99.9,30.8519672747505
100,30.8384434080866
100.1,30.8249250205342
100.2,30.8114120848215
100.3,30.7979045734555
100.4,30.7844024587248
100.5,30.7709057127008
100.6,30.7574143072408
100.7,30.7439282139893
100.8,30.7304474043804
100.9,30.7169718496402
101,30.7035015207885
101.1,30.6900363886411
101.2,30.6765764238119
101.3,30.6631215967151
101.4,30.649671877567
101.5,30.6362272363886
101.6,30.6227876430074
101.7,30.6093530670594
101.8,30.5959234779918
101.9,30.5824988450643
102,30.5690791373518
102.1,30.5556643237463
102.2,30.5422543729593
102.3,30.5288492535232
102.4,30.5154489337943
102.5,30.5020533819543
102.6,30.4886625660124
102.7,30.4752764538081
102.8,30.4618950130123
102.9,30.4485182111301
103,30.4351460155027
103.1,30.4217783933096
103.2,30.4084153115703
103.3,30.395056737147
103.4,30.3817026367462
103.5,30.3683529769209
103.6,30.3550077240729
103.7,30.3416668444545
103.8,30.3283303041712
103.9,30.3149980691829
104,30.3016701053067
104.1,30.2883463782188
104.2,30.2750268534562
104.3,30.2617114964192
104.4,30.2484002723733
104.5,30.2350931464513
104.6,30.2217900836552
104.7,30.2084910488582
104.8,30.1951960068072
104.9,30.1819049221243
105,30.1686177593091
105.1,30.1553344827407
105.2,30.1420550566796
105.3,30.1287794452699
105.4,30.1155076125413
105.5,30.1022395224108
105.6,30.0889751386852
105.7,30.0757144250627
105.8,30.062457345135
105.9,30.0492038623894
106,30.0359539402106
106.1,30.0227075418828
106.2,30.0094646305917
106.3,29.9962251694264
106.4,29.9829891213812
106.5,29.969756449358
106.6,29.9565271161677
106.7,29.9433010845326
106.8,29.9300783170879
106.9,29.9168587763842
107,29.9036424248887
107.1,29.8904292249878
107.2,29.8772191389886
107.3,29.864012129121
107.4,29.8508081575392
107.5,29.8376071863243
107.6,29.8244091774856
107.7,29.8112140929625
107.8,29.7980218946268
107.9,29.7848325442842
108,29.771646003676
108.1,29.7584622344814
108.2,29.7452811983192
108.3,29.7321028567493
108.4,29.7189271712749
108.5,29.7057541033442
108.6,29.6925836143521
108.7,29.6794156656424
108.8,29.6662502185088
108.9,29.6530872341975
109,29.6399266739087
109.1,29.6267684987982
109.2,29.6136126699792
109.3,29.6004591485242
109.4,29.5873078954669
109.5,29.5741588718034
109.6,29.5610120384944
109.7,29.5478673564668
109.8,29.5347247866152
109.9,29.5215842898042
110,29.5084458268691
110.1,29.4953093586186
110.2,29.482174845836
110.3,29.4690422492807
110.4,29.4559115296903
110.5,29.4427826477819
110.6,29.4296555642538
110.7,29.4165302397875
110.8,29.4034066350488
110.9,29.3902847106896
111,29.3771644273497
111.1,29.3640457456583
111.2,29.3509286262354
111.3,29.3378130296935
111.4,29.3246989166395
111.5,29.3115862476755
111.6,29.2984749834013
111.7,29.285365084415
111.8,29.2722565113154
111.9,29.2591492247029
112,29.2460431851812
112.1,29.232938353359
112.2,29.2198346898513
112.3,29.2067321552808
112.4,29.1936307102796
112.5,29.1805303154908
112.6,29.1674309315692
112.7,29.1543325191839
112.8,29.1412350390187
112.9,29.1281384517741
113,29.1150427181687
113.1,29.1019477989403
113.2,29.0888536548475
113.3,29.0757602466714
113.4,29.0626675352162
113.5,29.0495754813115
113.6,29.0364840458129
113.7,29.0233931896037
113.8,29.0103028735965
113.9,28.9972130587338
114,28.9841237059901
114.1,28.9710347763727
114.2,28.9579462309234
114.3,28.9448580307194
114.4,28.9317701368747
114.5,28.9186825105416
114.6,28.9055951129119
114.7,28.8925079052178
114.8,28.8794208487335
114.9,28.8663339047766
115,28.8532470347087
115.1,28.8401601999372
115.2,28.8270733619164
115.3,28.8139864821482
115.4,28.8008995221841
115.5,28.7878124436258
115.6,28.7747252081265
115.7,28.761637777392
115.8,28.7485501131822
115.9,28.7354621773117
116,28.7223739316513
116.1,28.709285338129
116.2,28.6961963587311
116.3,28.6831069555034
116.4,28.6700170905522
116.5,28.6569267260452
116.6,28.6438358242129
116.7,28.6307443473496
116.8,28.6176522578141
116.9,28.6045595180313
117,28.5914660904927
117.1,28.5783719377577
117.2,28.5652770224546
117.3,28.5521813072815
117.4,28.5390847550074
117.5,28.525987328473
117.6,28.5128889905921
117.7,28.4997897043518
117.8,28.4866894328144
117.9,28.4735881391173
118,28.460485786475
118.1,28.4473823381791
118.2,28.4342777575999
118.3,28.4211720081869
118.4,28.4080650534696
118.5,28.394956857059
118.6,28.3818473826477
118.7,28.3687365940113
118.8,28.3556244550091
118.9,28.3425109295848
119,28.3293959817675
119.1,28.3162795756726
119.2,28.3031616755024
119.3,28.290042245547
119.4,28.2769212501851
119.5,28.2637986538848
119.6,28.2506744212045
119.7,28.2375485167933
119.8,28.2244209053922
119.9,28.2112915518345
120,28.1981604210469
120.1,28.1850274780499
120.2,28.1718926879586
120.3,28.1587560159834
120.4,28.1456174274311
120.5,28.1324768877049
120.6,28.1193343623056
120.7,28.1061898168322
120.8,28.0930432169823
120.9,28.0798945285531
121,28.0667437174418
121.1,28.0535907496465
121.2,28.0404355912666
121.3,28.0272782085034
121.4,28.0141185676609
121.5,28.0009566351464
121.6,27.9877923774709
121.7,27.9746257612498
121.8,27.9614567532036
121.9,27.9482853201582
122,27.9351114290457
122.1,27.921935046905
122.2,27.9087561408819
122.3,27.8955746782304
122.4,27.8823906263123
122.5,27.8692039525985
122.6,27.8560146246691
122.7,27.8428226102141
122.8,27.8296278770338
122.9,27.8164303930392
123,27.8032301262526
123.1,27.7900270448081
123.2,27.776821116952
123.3,27.7636123110432
123.4,27.7504005955537
123.5,27.7371859390691
123.6,27.7239683102889
123.7,27.710747678027
123.8,27.6975240112122
123.9,27.6842972788884
124,27.671067450215
124.1,27.6578344944676
124.2,27.6445983810382
124.3,27.6313590794352
124.4,27.6181165592844
124.5,27.6048707903291
124.6,27.5916217424302
124.7,27.5783693855669
124.8,27.565113689837
124.9,27.5518546254569
125,27.5385921627622
125.1,27.525326272208
125.2,27.5120569243693
125.3,27.4987840899409
125.4,27.4855077397381
125.5,27.4722278446968
125.6,27.4589443758737
125.7,27.445657304447
125.8,27.432366601716
125.9,27.4190722391018
126,27.4057741881475
126.1,27.3924724205183
126.2,27.3791669080019
126.3,27.3658576225086
126.4,27.3525445360716
126.5,27.339227620847
126.6,27.3259068491144
126.7,27.3125821932768
126.8,27.2992536258608
126.9,27.285921119517
127,27.27258464702
127.1,27.2592441812684
127.2,27.2458996952855
127.3,27.2325511622189
127.4,27.219198555341
127.5,27.205841848049
127.6,27.1924810138651
127.7,27.1791160264365
127.8,27.1657468595358
127.9,27.1523734870608
128,27.138995883035
128.1,27.1256140216073
128.2,27.1122278770522
128.3,27.0988374237703
128.4,27.0854426362877
128.5,27.0720434892568
128.6,27.0586399574558
128.7,27.0452320157892
128.8,27.0318196392874
128.9,27.0184028031074
129,27.0049814825322
129.1,26.9915556529714
129.2,26.9781252899607
129.3,26.9646903691625
129.4,26.9512508663655
129.5,26.937806757485
129.6,26.9243580185628
129.7,26.9109046257671
129.8,26.8974465553928
129.9,26.8839837838613
130,26.8705162877205
130.1,26.8570440436449
130.2,26.8435670284356
130.3,26.8300852190201
130.4,26.8165985924525
130.5,26.8031071259133
130.6,26.7896107967095
130.7,26.7761095822746
130.8,26.7626034601682
130.9,26.7490924080766
131,26.7355764038121
131.1,26.7220554253132
131.2,26.7085294506449
131.3,26.694998457998
131.4,26.6814624256894
131.5,26.6679213321621
131.6,26.6543751559847
131.7,26.6408238758519
131.8,26.6272674705839
131.9,26.6137059191267
132,26.6001392005517
132.1,26.5865672940559
132.2,26.5729901789612
132.3,26.5594078347153
132.4,26.5458202408906
132.5,26.5322273771846
132.6,26.5186292234197
132.7,26.505025759543
132.8,26.4914169656261
132.9,26.4778028218653
133,26.4641833085812
133.1,26.4505584062183
133.2,26.4369280953456
133.3,26.4232923566556
133.4,26.4096511709648
133.5,26.3960045192133
133.6,26.3823523824643
133.7,26.3686947419048
133.8,26.3550315788444
133.9,26.3413628747159
134,26.3276886110747
134.1,26.314008769599
134.2,26.3003233320892
134.3,26.2866322804679
134.4,26.2729355967798
134.5,26.2592332631913
134.6,26.2455252619906
134.7,26.2318115755871
134.8,26.2180921865118
134.9,26.2043670774162
135,26.1906362310729
135.1,26.1768996303753
135.2,26.1631572583367
135.3,26.1494090980909
135.4,26.1356551328915
135.5,26.1218953461119
135.6,26.1081297212449
135.7,26.0943582419026
135.8,26.0805808918162
135.9,26.0667976548355
136,26.0530085149291
136.1,26.0392134561835
136.2,26.0254124628037
136.3,26.0116055191123
136.4,25.9977926095494
136.5,25.9839737186725
136.6,25.9701488311562
136.7,25.9563179317919
136.8,25.9424810054873
136.9,25.9286380372666
137,25.91478901227
137.1,25.9009339157534
137.2,25.887072733088
137.3,25.8732054497605
137.4,25.8593320513722
137.5,25.8454525236394
137.6,25.8315668523924
137.7,25.8176750235757
137.8,25.8037770232478
137.9,25.7898728375805
138,25.7759624528587
138.1,25.7620458554806
138.2,25.7481230319566
138.3,25.7341939689099
138.4,25.7202586530754
138.5,25.7063170712998
138.6,25.6923692105415
138.7,25.6784150578696
138.8,25.6644546004644
138.9,25.6504878256166
139,25.6365147207272
139.1,25.622535273307
139.2,25.6085494709764
139.3,25.5945573014652
139.4,25.5805587526122
139.5,25.5665538123647
139.6,25.5525424687783
139.7,25.538524710017
139.8,25.524500524352
139.9,25.5104699001621
140,25.4964328259334
140.1,25.4823892902582
140.2,25.4683392818357
140.3,25.4542827894708
140.4,25.4402198020743
140.5,25.4261503086624
140.6,25.4120742983563
140.7,25.3979917603822
140.8,25.3839026840702
140.9,25.369807058855
141,25.3557048742747
141.1,25.3415961199708
141.2,25.327480785688
141.3,25.3133588612737
141.4,25.2992303366774
141.5,25.285095201951
141.6,25.2709534472478
141.7,25.2568050628224
141.8,25.2426500390307
141.9,25.2284883663289
142,25.2143200352736
142.1,25.2001450365213
142.2,25.1859633608282
142.3,25.1717749990496
142.4,25.1575799421398
142.5,25.1433781811515
142.6,25.1291697072356
142.7,25.1149545116408
142.8,25.1007325857134
142.9,25.0865039208966
143,25.0722685087306
143.1,25.0580263408516
143.2,25.0437774089922
143.3,25.0295217049804
143.4,25.0152592207399
143.5,25.0009899482888
143.6,24.9867138797401
143.7,24.9724310073011
143.8,24.9581413232729
143.9,24.9438448200499
144,24.9295414901198
144.1,24.9152313260632
144.2,24.9009143205528
144.3,24.8865904663536
144.4,24.8722597563222
144.5,24.8579221834064
144.6,24.8435777406452
144.7,24.8292264211678
144.8,24.8148682181941
144.9,24.8005031250334
145,24.7861311350846
145.1,24.771752241836
145.2,24.7573664388643
145.3,24.7429737198346
145.4,24.7285740785002
145.5,24.7141675087019
145.6,24.6997540043678
145.7,24.685333559513
145.8,24.6709061682388
145.9,24.6564718247331
146,24.6420305232693
146.1,24.6275822582063
146.2,24.6131270239881
146.3,24.5986648151434
146.4,24.584195626285
146.5,24.56971945211
146.6,24.5552362873987
146.7,24.540746127015
146.8,24.5262489659052
146.9,24.5117447990985
147,24.4972336217058
147.1,24.4827154289201
147.2,24.4681902160155
147.3,24.4536579783471
147.4,24.4391187113508
147.5,24.4245724105426
147.6,24.4100190715184
147.7,24.3954586899537
147.8,24.3808912616031
147.9,24.3663167822998
148,24.3517352479558
148.1,24.3371466545608
148.2,24.3225509981822
148.3,24.307948274965
148.4,24.2933384811307
148.5,24.2787216129779
148.6,24.2640976668808
148.7,24.24946663929
148.8,24.2348285267313
148.9,24.2201833258056
149,24.2055310331885
149.1,24.1908716456303
149.2,24.1762051599548
149.3,24.16153157306
149.4,24.1468508819167
149.5,24.132163083569
149.6,24.1174681751334
149.7,24.1027661537985
149.8,24.088057016825
149.9,24.0733407615448
150,24.058617385361
150.1,24.0438868857477
150.2,24.029149260249
150.3,24.0144045064793
150.4,23.9996526221225
150.5,23.9848936049321
150.6,23.9701274527302
150.7,23.9553541634078
150.8,23.940573734924
150.9,23.9257861653057
151,23.9109914526476
151.1,23.8961895951113
151.2,23.8813805909255
151.3,23.8665644383851
151.4,23.8517411358512
151.5,23.8369106817509
151.6,23.8220730745763
151.7,23.8072283128848
151.8,23.7923763952987
151.9,23.7775173205042
152,23.7626510872518
152.1,23.7477776943557
152.2,23.7328971406933
152.3,23.718009425205
152.4,23.7031145468938
152.5,23.6882125048251
152.6,23.6733032981259
152.7,23.6583869259852
152.8,23.6434633876529
152.9,23.6285326824401
153,23.6135948097183
153.1,23.598649768919
153.2,23.583697559534
153.3,23.5687381811144
153.4,23.5537716332705
153.5,23.5387979156714
153.6,23.5238170280448
153.7,23.5088289701767
153.8,23.4938337419107
153.9,23.4788313431481
154,23.4638217738473
154.1,23.4488050340235
154.2,23.4337811237485
154.3,23.4187500431502
154.4,23.4037117924125
154.5,23.3886663717746
154.6,23.373613781531
154.7,23.3585540220311
154.8,23.3434870936787
154.9,23.328412996932
155,23.313331732303
155.1,23.298243300357
155.2,23.283147701713
155.3,23.2680449370426
155.4,23.25293500707
155.5,23.2378179125717
155.6,23.2226936543763
155.7,23.2075622333637
155.8,23.1924236504654
155.9,23.1772779066637
156,23.1621250029918
156.1,23.1469649405329
156.2,23.1317977204206
156.3,23.116623343838
156.4,23.1014418120178
156.5,23.0862531262415
156.6,23.0710572878397
156.7,23.0558542981914
156.8,23.0406441587236
156.9,23.0254268709114
157,23.0102024362774
157.1,22.9949708563912
157.2,22.9797321328698
157.3,22.9644862673763
157.4,22.9492332616207
157.5,22.9339731173586
157.6,22.9187058363915
157.7,22.9034314205664
157.8,22.8881498717753
157.9,22.8728611919551
158,22.8575653830873
158.1,22.8422624471974
158.2,22.8269523863552
158.3,22.8116352026738
158.4,22.79631089831
158.5,22.7809794754634
158.6,22.7656409363764
158.7,22.750295283334
158.8,22.7349425186634
158.9,22.7195826447336
159,22.7042156639553
159.1,22.6888415787804
159.2,22.673460391702
159.3,22.658072105254
159.4,22.6426767220105
159.5,22.6272742445862
159.6,22.6118646756353
159.7,22.5964480178519
159.8,22.5810242739694
159.9,22.5655934467603
160,22.5501555390359
160.1,22.5347105536458
160.2,22.5192584934783
160.3,22.5037993614592
160.4,22.4883331605523
160.5,22.4728598937588
160.6,22.4573795641169
160.7,22.4418921747019
160.8,22.4263977286256
160.9,22.4108962290361
161,22.3953876791177
161.1,22.3798720820906
161.2,22.3643494412102
161.3,22.3488197597677
161.4,22.3332830410888
161.5,22.3177392885344
161.6,22.3021885054996
161.7,22.286630695414
161.8,22.271065861741
161.9,22.2554940079777
162,22.239915137655
162.1,22.2243292543367
162.2,22.2087363616195
162.3,22.1931364631332
162.4,22.1775295625398
162.5,22.1619156635334
162.6,22.1462947698402
162.7,22.1306668852183
162.8,22.1150320134569
162.9,22.0993901583766
163,22.083741323829
163.1,22.0680855136963
163.2,22.0524227318914
163.3,22.0367529823571
163.4,22.0210762690665
163.5,22.0053925960223
163.6,21.9897019672568
163.7,21.9740043868314
163.8,21.9582998588368
163.9,21.9425883873922
164,21.9268699766456
164.1,21.9111446307733
164.2,21.8954123539796
164.3,21.8796731504967
164.4,21.8639270245844
164.5,21.84817398053
164.6,21.8324140226479
164.7,21.8166471552794
164.8,21.8008733827927
164.9,21.7850927095822
165,21.7693051400688
165.1,21.7535106786992
165.2,21.7377093299463
165.3,21.7219010983083
165.4,21.7060859883087
165.5,21.6902640044964
165.6,21.674435151445
165.7,21.658599433753
165.8,21.6427568560433
165.9,21.6269074229631
166,21.6110511391836
166.1,21.5951880093999
166.2,21.5793180383307
166.3,21.5634412307183
166.4,21.5475575913279
166.5,21.5316671249479
166.6,21.5157698363895
166.7,21.4998657304864
166.8,21.4839548120947
166.9,21.4680370860926
167,21.4521125573804
167.1,21.43618123088
167.2,21.420243111535
167.3,21.4042982043102
167.4,21.3883465141918
167.5,21.3723880461866
167.6,21.3564228053223
167.7,21.3404507966473
167.8,21.3244720252301
167.9,21.3084864961595
168,21.2924942145443
168.1,21.2764951855128
168.2,21.2604894142132
168.3,21.2444769058129
168.4,21.2284576654984
168.5,21.2124316984754
168.6,21.1963990099683
168.7,21.1803596052199
168.8,21.1643134894918
168.9,21.1482606680637
169,21.1322011462331
169.1,21.1161349293157
169.2,21.1000620226446
169.3,21.0839824315707
169.4,21.0678961614619
169.5,21.0518032177034
169.6,21.0357036056973
169.7,21.0195973308625
169.8,21.0034843986344
169.9,20.9873648144649
170,20.971238583822
170.1,20.9551057121899
170.2,20.9389662050687
170.3,20.9228200679739
170.4,20.906667306437
170.5,20.8905079260044
170.6,20.874341932238
170.7,20.8581693307146
170.8,20.8419901270257
170.9,20.8258043267777
171,20.8096119355914
171.1,20.7934129591019
171.2,20.7772074029585
171.3,20.7609952728245
171.4,20.7447765743771
171.5,20.7285513133071
171.6,20.7123194953187
171.7,20.6960811261296
171.8,20.6798362114707
171.9,20.6635847570859
172,20.6473267687317
172.1,20.6310622521777
172.2,20.6147912132059
172.3,20.5985136576104
172.4,20.582229591198
172.5,20.5659390197873
172.6,20.5496419492088
172.7,20.5333383853049
172.8,20.5170283339294
172.9,20.5007118009477
173,20.4843887922366
173.1,20.4680593136838
173.2,20.4517233711882
173.3,20.4353809706595
173.4,20.419032118018
173.5,20.4026768191947
173.6,20.386315080131
173.7,20.3699469067784
173.8,20.3535723050986
173.9,20.3371912810634
174,20.3208038406543
174.1,20.3044099898623
174.2,20.2880097346883
174.3,20.2716030811425
174.4,20.2551900352441
174.5,20.2387706030216
174.6,20.2223447905126
174.7,20.2059126037633
174.8,20.1894740488287
174.9,20.1730291317725
175,20.1565778586665
175.1,20.140120235591
175.2,20.1236562686346
175.3,20.1071859638936
175.4,20.0907093274723
175.5,20.0742263654828
175.6,20.0577370840449
175.7,20.0412414892856
175.8,20.0247395873396
175.9,20.0082313843485
176,19.9917168864614
176.1,19.9751960998338
176.2,19.9586690306287
176.3,19.9421356850152
176.4,19.9255960691694
176.5,19.9090501892737
176.6,19.8924980515169
176.7,19.8759396620938
176.8,19.8593750272055
176.9,19.8428041530592
177,19.8262270458674
177.1,19.809643711849
177.2,19.7930541572279
177.3,19.7764583882338
177.4,19.7598564111017
177.5,19.7432482320719
177.6,19.7266338573895
177.7,19.7100132933051
177.8,19.6933865460737
177.9,19.6767536219553
178,19.6601145272146
178.1,19.6434692681207
178.2,19.6268178509472
178.3,19.6101602819719
178.4,19.5934965674768
178.5,19.5768267137482
178.6,19.5601507270761
178.7,19.5434686137545
178.8,19.5267803800809
178.9,19.5100860323568
179,19.493385576887
179.1,19.4766790199797
179.2,19.4599663679464
179.3,19.4432476271019
179.4,19.426522803764
179.5,19.4097919042534
179.6,19.3930549348939
179.7,19.3763119020118
179.8,19.3595628119362
179.9,19.3428076709989
180,19.3260464855338
180.1,19.3092792618773
180.2,19.2925060063683
180.3,19.2757267253474
180.4,19.2589414251576
180.5,19.2421501121436
180.6,19.225352792652
180.7,19.2085494730313
180.8,19.1917401596314
180.9,19.1749248588037
181,19.1581035769014
181.1,19.1412763202787
181.2,19.1244430952912
181.3,19.1076039082955
181.4,19.0907587656493
181.5,19.0739076737115
181.6,19.0570506388414
181.7,19.0401876673994
181.8,19.0233187657465
181.9,19.0064439402442
182,18.9895631972545
182.1,18.9726765431398
182.2,18.9557839842627
182.3,18.9388855269862
182.4,18.9219811776733
182.5,18.9050709426869
182.6,18.88815482839
182.7,18.8712328411453
182.8,18.8543049873153
182.9,18.8373712732622
183,18.8204317053478
183.1,18.8034862899331
183.2,18.7865350333788
183.3,18.7695779420447
183.4,18.7526150222901
183.5,18.735646280473
183.6,18.7186717229507
183.7,18.7016913560796
183.8,18.6847051862145
183.9,18.6677132197096
184,18.6507154629172
184.1,18.6337119221886
184.2,18.6167026038734
184.3,18.59968751432
184.4,18.5826666598747
184.5,18.5656400468825
184.6,18.5486076816862
184.7,18.5315695706271
184.8,18.5145257200442
184.9,18.4974761362748
185,18.4804208256539
185.1,18.4633597945141
185.2,18.446293049186
185.3,18.4292205959978
185.4,18.4121424412752
185.5,18.3950585913413
185.6,18.3779690525168
185.7,18.3608738311195
185.8,18.3437729334645
185.9,18.3266663658643
186,18.3095541346281
186.1,18.2924362460625
186.2,18.2753127064707
186.3,18.2581835221531
186.4,18.2410486994066
186.5,18.2239082445249
186.6,18.2067621637984
186.7,18.1896104635141
186.8,18.1724531499552
186.9,18.1552902294018
187,18.1381217081298
187.1,18.1209475924119
187.2,18.1037678885166
187.3,18.0865826027086
187.4,18.0693917412489
187.5,18.0521953103941
187.6,18.034993316397
187.7,18.0177857655061
187.8,18.0005726639658
187.9,17.983354018016
188,17.9661298338924
188.1,17.9489001178261
188.2,17.9316648760439
188.3,17.9144241147678
188.4,17.8971778402152
188.5,17.8799260585989
188.6,17.8626687761269
188.7,17.8454059990021
188.8,17.8281377334227
188.9,17.8108639855819
189,17.7935847616677
189.1,17.7763000678632
189.2,17.7590099103461
189.3,17.7417142952889
189.4,17.7244132288588
189.5,17.7071067172176
189.6,17.6897947665215
189.7,17.6724773829215
189.8,17.6551545725627
189.9,17.6378263415847
190,17.6204926961213
190.1,17.6031536423006
190.2,17.5858091862447
190.3,17.56845933407
190.4,17.5511040918867
190.5,17.5337434657991
190.6,17.5163774619055
190.7,17.4990060862977
190.8,17.4816293450615
190.9,17.4642472442764
191,17.4468597900156
191.1,17.4294669883456
191.2,17.4120688453267
191.3,17.3946653670126
191.4,17.3772565594503
191.5,17.3598424286802
191.6,17.3424229807359
191.7,17.3249982216443
191.8,17.3075681574255
191.9,17.2901327940925
192,17.2726921376515
192.1,17.2552461941015
192.2,17.2377949694346
192.3,17.2203384696356
192.4,17.202876700682
192.5,17.1854096685444
192.6,17.1679373791856
192.7,17.1504598385613
192.8,17.1329770526197
192.9,17.1154890273014
193,17.0979957685395
193.1,17.0804972822595
193.2,17.0629935743791
193.3,17.0454846508083
193.4,17.0279705174493
193.5,17.0104511801966
193.6,16.9929266449364
193.7,16.9753969175472
193.8,16.9578620038995
193.9,16.9403219098554
194,16.9227766412692
194.1,16.9052262039868
194.2,16.8876706038457
194.3,16.8701098466755
194.4,16.8525439382969
194.5,16.8349728845225
194.6,16.8173966911562
194.7,16.7998153639935
194.8,16.7822289088213
194.9,16.7646373314177
195,16.7470406375521
195.1,16.7294388329852
195.2,16.7118319234687
195.3,16.6942199147457
195.4,16.6766028125499
195.5,16.6589806226064
195.6,16.6413533506311
195.7,16.6237210023308
195.8,16.6060835834029
195.9,16.5884410995359
196,16.5707935564088
196.1,16.5531409596914
196.2,16.5354833150439
196.3,16.5178206281173
196.4,16.5001529045529
196.5,16.4824801499825
196.6,16.4648023700282
196.7,16.4471195703026
196.8,16.4294317564085
196.9,16.4117389339387
197,16.3940411084765
197.1,16.3763382855951
197.2,16.3586304708578
197.3,16.3409176698179
197.4,16.3231998880185
197.5,16.3054771309929
197.6,16.287749404264
197.7,16.2700167133445
197.8,16.2522790637368
197.9,16.2345364609331
198,16.216788910415
198.1,16.199036417654
198.2,16.1812789881108
198.3,16.1635166272356
198.4,16.145749340468
198.5,16.1279771332372
198.6,16.1102000109613
198.7,16.092417979048
198.8,16.0746310428939
198.9,16.0568392078848
199,16.0390424793957
199.1,16.0212408627905
199.2,16.0034343634221
199.3,15.9856229866325
199.4,15.9678067377517
199.5,15.9499856220986
199.6,15.9321596449819
199.7,15.9143288116992
199.8,15.8964931275362
199.9,15.8786525977674
200,15.8608072276557
200.1,15.8429570224522
200.2,15.8251019873969
200.3,15.8072421277179
200.4,15.7893774486319
200.5,15.7715079553436
200.6,15.7536336530463
200.7,15.7357545469213
200.8,15.7178706421382
200.9,15.6999819438546
201,15.6820884572163
201.1,15.6641901873569
201.2,15.6462871393982
201.3,15.62837931845
201.4,15.6104667296098
201.5,15.5925493779631
201.6,15.574627268583
201.7,15.5567004065308
201.8,15.5387687968551
201.9,15.5208324445925
202,15.502891354767
202.1,15.4849455323906
202.2,15.4669949824626
202.3,15.44903970997
202.4,15.4310797198874
202.5,15.4131150171768
202.6,15.3951456067879
202.7,15.3771714936576
202.8,15.3591926827105
202.9,15.3412091788587
203,15.3232209870016
203.1,15.305228112026
203.2,15.2872305588064
203.3,15.2692283322045
203.4,15.2512214370697
203.5,15.2332098782386
203.6,15.2151936605355
203.7,15.1971727887722
203.8,15.1791472677479
203.9,15.1611171022497
204,15.1430822970521
204.1,15.1250428569173
204.2,15.1069987865954
204.3,15.0889500908244
204.4,15.0708967743299
204.5,15.0528388418259
204.6,15.0347762980143
204.7,15.0167091475855
204.8,14.998637395218
204.9,14.980561045579
205,14.9624801033245
205.1,14.9443945730992
205.2,14.926304459537
205.3,14.9082097672611
205.4,14.8901105008841
205.5,14.8720066650086
205.6,14.853898264227
205.7,14.8357853031223
205.8,14.817667786268
205.9,14.7995457182287
206,14.7814191035601
206.1,14.7632879468098
206.2,14.7451522525188
206.3,14.7270120252192
206.4,14.7088672694349
206.5,14.6907179896838
206.6,14.6725641904784
206.7,14.6544058763257
206.8,14.6362430517274
206.9,14.6180757211803
207,14.5999038891768
207.1,14.5817275602058
207.2,14.5635467387528
207.3,14.5453614293003
207.4,14.5271716363287
207.5,14.5089773643159
207.6,14.4907786177381
207.7,14.4725754010703
207.8,14.4543677187856
207.9,14.4361555753561
208,14.4179389752526
208.1,14.3997179229443
208.2,14.3814924228988
208.3,14.3632624795815
208.4,14.3450280974553
208.5,14.3267892809797
208.6,14.3085460346103
208.7,14.2902983627974
208.8,14.2720462699851
208.9,14.2537897606096
209,14.2355288390984
209.1,14.2172635098682
209.2,14.1989937773231
209.3,14.1807196458535
209.4,14.1624411205499
209.5,14.14415820553
209.6,14.1258709047952
209.7,14.1075792225461
209.8,14.089283163034
209.9,14.0709827305097
210,14.0526779292043
210.1,14.0343687633224
210.2,14.0160552370387
210.3,13.9977373544953
210.4,13.9794151198009
210.5,13.961088537029
210.6,13.9427576090671
210.7,13.9244223406495
210.8,13.9060827362536
210.9,13.8877387998672
211,13.869390535324
211.1,13.8510379464277
211.2,13.832681036971
211.3,13.8143198107242
211.4,13.7959542714252
211.5,13.7775844227751
211.6,13.7592102684378
211.7,13.7408318120403
211.8,13.722449057174
211.9,13.7040620073956
212,13.6856706662272
212.1,13.6672750371575
212.2,13.6488751236476
212.3,13.6304709291211
212.4,13.6120624569654
212.5,13.5936497105394
212.6,13.5752326931749
212.7,13.5568114081749
212.8,13.5383858588128
212.9,13.519956048333
213,13.5015219799522
213.1,13.48308365686
213.2,13.4646410822193
213.3,13.4461942591669
213.4,13.4277431908137
213.5,13.4092878802453
213.6,13.3908283305219
213.7,13.3723645446795
213.8,13.3538965257294
213.9,13.335424276659
214,13.3169478004319
214.1,13.298467099988
214.2,13.279982178244
214.3,13.2614930380934
214.4,13.2429996824065
214.5,13.2245021140312
214.6,13.2060003357922
214.7,13.187494350492
214.8,13.1689841609106
214.9,13.1504697698054
215,13.1319511799116
215.1,13.1134283939422
215.2,13.094901414588
215.3,13.0763702445174
215.4,13.0578348863771
215.5,13.0392953427912
215.6,13.020751616362
215.7,13.0022037096697
215.8,12.983651625272
215.9,12.965095365705
216,12.9465349334822
216.1,12.9279703310952
216.2,12.9094015610132
216.3,12.8908286256832
216.4,12.8722515275299
216.5,12.8536702689558
216.6,12.8350848523407
216.7,12.8164952800422
216.8,12.7979015543953
216.9,12.7793036777124
217,12.7607016522833
217.1,12.7420954803751
217.2,12.723485164232
217.3,12.7048707060756
217.4,12.6862521081043
217.5,12.6676293724937
217.6,12.6490025013963
217.7,12.6303714969412
217.8,12.6117363612347
217.9,12.5930970963593
218,12.5744537043743
218.1,12.5558061873156
218.2,12.5371545471954
218.3,12.5184987860022
218.4,12.4998389056996
218.5,12.4811749082271
218.6,12.4625067955025
218.7,12.4438345694198
218.8,12.4251582318482
218.9,12.4064777846325
219,12.3877932295928
219.1,12.3691045685249
219.2,12.3504118031999
219.3,12.3317149353645
219.4,12.3130139667405
219.5,12.294308899025
219.6,12.2755997338901
219.7,12.256886472983
219.8,12.2381691179255
219.9,12.2194476703144
220,12.2007221317211
220.1,12.1819925036915
220.2,12.163258787746
220.3,12.1445209853794
220.4,12.1257790980607
220.5,12.1070331272329
220.6,12.0882830743132
220.7,12.0695289406928
220.8,12.0507707277405
220.9,12.0320084367952
221,12.0132420691654
221.1,11.9944716261347
221.2,11.9756971089628
221.3,11.9569185188826
221.4,11.9381358571
221.5,11.9193491247937
221.6,11.9005583231147
221.7,11.8817634531875
221.8,11.8629645161089
221.9,11.8441615129486
222,11.8253544447487
222.1,11.8065433125235
222.2,11.7877281172598
222.3,11.7689088599163
222.4,11.750085541424
222.5,11.7312581626855
222.6,11.7124267245754
222.7,11.6935912279398
222.8,11.6747516735966
222.9,11.6559080623349
223,11.6370603949153
223.1,11.6182086720693
223.2,11.5993528944999
223.3,11.5804930628807
223.4,11.5616291778563
223.5,11.542761240042
223.6,11.5238892500236
223.7,11.5050132083576
223.8,11.4861331155706
223.9,11.4672489721595
224,11.4483607785914
224.1,11.4294685353032
224.2,11.4105722427019
224.3,11.3916719011641
224.4,11.3727675110358
224.5,11.3538590726328
224.6,11.3349465862401
224.7,11.3160300521119
224.8,11.2971094704716
224.9,11.2781848415114
225,11.2592561653926
225.1,11.2403234422449
225.2,11.2213866721669
225.3,11.2024458552253
225.4,11.1835009914554
225.5,11.1645520808605
225.6,11.1455991234122
225.7,11.1266421190497
225.8,11.1076810676803
225.9,11.0887159691787
226,11.0697468233873
226.1,11.0507736301159
226.2,11.0317963891413
226.3,11.0128151002077
226.4,10.9938297630263
226.5,10.9748403772749
226.6,10.9558469425983
226.7,10.9368494586075
226.8,10.9178479248804
226.9,10.8988423409608
227,10.8798327063588
227.1,10.8608190205506
227.2,10.8418012829782
227.3,10.8227794930494
227.4,10.8037536501374
227.5,10.7847237535812
227.6,10.7656898026847
227.7,10.7466517967173
227.8,10.7276097349132
227.9,10.7085636164716
228,10.6895134405565
228.1,10.6704592062963
228.2,10.6514009127841
228.3,10.632338559077
228.4,10.6132721441965
228.5,10.594201667128
228.6,10.5751271268207
228.7,10.5560485221877
228.8,10.5369658521054
228.9,10.5178791154139
229,10.4987883109164
229.1,10.479693437379
229.2,10.4605944935313
229.3,10.4414914780651
229.4,10.4223843896353
229.5,10.4032732268591
229.6,10.3841579883161
229.7,10.3650386725481
229.8,10.3459152780588
229.9,10.3267878033141
230,10.3076562467412
230.1,10.2885206067293
230.2,10.2693808816287
230.3,10.2502370697511
230.4,10.2310891693692
230.5,10.2119371787168
230.6,10.1927810959884
230.7,10.173620919339
230.8,10.1544566468843
230.9,10.1352882767
231,10.1161158068223
231.1,10.096939235247
231.2,10.0777585599299
231.3,10.0585737787865
231.4,10.0393848896917
231.5,10.0201918904797
231.6,10.0009947789438
231.7,9.98179355283652
231.8,9.96258820986894
231.9,9.94337874771094
232,9.92416516399084
232.1,9.9049474562953
232.2,9.88572562216912
232.3,9.86649965911506
232.4,9.8472695645937
232.5,9.82803533602326
232.6,9.80879697077942
232.7,9.78955446619517
232.8,9.7703078195606
232.9,9.75105702812276
233,9.73180208908547
233.1,9.71254299960915
233.2,9.69327975681067
233.3,9.6740123577631
233.4,9.65474079949563
233.5,9.63546507899331
233.6,9.61618519319694
233.7,9.59690113900284
233.8,9.5776129132627
233.9,9.55832051278339
234,9.53902393432678
234.1,9.51972317460958
234.2,9.50041823030315
234.3,9.48110909803325
234.4,9.46179577437995
234.5,9.44247825587739
234.6,9.42315653901366
234.7,9.40383062023058
234.8,9.38450049592345
234.9,9.36516616244098
235,9.34582761608503
235.1,9.32648485311045
235.2,9.30713786972488
235.3,9.28778666208858
235.4,9.26843122631419
235.5,9.2490715584666
235.6,9.22970765456275
235.7,9.21033951057143
235.8,9.19096712241308
235.9,9.17159048595958
236,9.15220959703408
236.1,9.13282445141081
236.2,9.11343504481494
236.3,9.09404137292227
236.4,9.07464343135912
236.5,9.05524121570211
236.6,9.03583472147794
236.7,9.01642394416329
236.8,8.99700887918447
236.9,8.97758952191735
237,8.95816586768709
237.1,8.93873791176795
237.2,8.91930564938314
237.3,8.89986907570459
237.4,8.88042818585271
237.5,8.86098297489621
237.6,8.8415334378519
237.7,8.82207956968452
237.8,8.80262136530651
237.9,8.78315881957782
238,8.76369192730564
238.1,8.74422068324428
238.2,8.72474508209495
238.3,8.7052651185055
238.4,8.68578078707027
238.5,8.66629208232983
238.6,8.64679899877081
238.7,8.62730153082568
238.8,8.60779967287254
238.9,8.58829341923491
239,8.56878276418152
239.1,8.54926770192608
239.2,8.52974822662705
239.3,8.5102243323875
239.4,8.49069601325486
239.5,8.4711632632207
239.6,8.45162607622048
239.7,8.43208444613341
239.8,8.41253836678219
239.9,8.39298783193279
240,8.37343283529425
240.1,8.35387337051843
240.2,8.33430943119986
240.3,8.31474101087541
240.4,8.29516810302418
240.5,8.27559070106725
240.6,8.25600879836741
240.7,8.23642238822898
240.8,8.21683146389754
240.9,8.19723601855978
241,8.17763604534326
241.1,8.15803153731616
241.2,8.13842248748707
241.3,8.11880888880472
241.4,8.09919073415785
241.5,8.07956801637491
241.6,8.05994072822385
241.7,8.04030886241189
241.8,8.02067241158529
241.9,8.00103136832915
242,7.98138572516712
242.1,7.96173547456123
242.2,7.94208060891165
242.3,7.92242112055642
242.4,7.90275700177127
242.5,7.88308824476934
242.6,7.863414841701
242.7,7.8437367846536
242.8,7.82405406565116
242.9,7.80436667665422
243,7.78467460955958
243.1,7.7649778562001
243.2,7.74527640834444
243.3,7.72557025769677
243.4,7.70585939589661
243.5,7.68614381451857
243.6,7.66642350507208
243.7,7.64669845900124
243.8,7.62696866768443
243.9,7.60723412243422
244,7.58749481449703
244.1,7.56775073505295
244.2,7.54800187521548
244.3,7.52824822603129
244.4,7.50848977847993
244.5,7.48872652347363
244.6,7.46895845185706
244.7,7.44918555440713
244.8,7.42940782183267
244.9,7.4096252447742
245,7.3898378138037
245.1,7.37004551942438
245.2,7.35024835207043
245.3,7.33044630210675
245.4,7.31063935982871
245.5,7.2908275154619
245.6,7.27101075916188
245.7,7.25118908101398
245.8,7.231362471033
245.9,7.21153091916298
246,7.19169441527688
246.1,7.17185294917643
246.2,7.15200651059184
246.3,7.13215508918158
246.4,7.11229867453208
246.5,7.0924372561575
246.6,7.07257082349946
246.7,7.05269936592684
246.8,7.03282287273549
246.9,7.01294133314798
247,6.99305473631332
247.1,6.97316307130674
247.2,6.95326632712945
247.3,6.93336449270833
247.4,6.91345755689577
247.5,6.8935455084693
247.6,6.87362833613137
247.7,6.85370602850913
247.8,6.83377857415415
247.9,6.81384596154218
248,6.79390817907291
248.1,6.77396521506962
248.2,6.75401705777903
248.3,6.734063695371
248.4,6.71410511593827
248.5,6.69414130749622
248.6,6.67417225798255
248.7,6.65419795525711
248.8,6.63421838710157
248.9,6.6142335412192
249,6.59424340523461
249.1,6.57424796669348
249.2,6.55424721306226
249.3,6.53424113172795
249.4,6.51422970999785
249.5,6.49421293509932
249.6,6.47419079417945
249.7,6.45416327430487
249.8,6.43413036246141
249.9,6.41409204555394
250,6.39404831040602
250.1,6.3739991437597
250.2,6.35394453227522
250.3,6.33388446253074
250.4,6.31381892102212
250.5,6.29374789416262
250.6,6.27367136828266
250.7,6.25358932962957
250.8,6.2335017643673
250.9,6.21340865857615
251,6.19330999825256
251.1,6.1732057693088
251.2,6.15309595757272
251.3,6.13298054878749
251.4,6.11285952861137
251.5,6.09273288261737
251.6,6.07260059629307
251.7,6.05246265504032
251.8,6.03231904417497
251.9,6.01216974892665
252,5.99201475443844
252.1,5.97185404576668
252.2,5.95168760788066
252.3,5.93151542566239
252.4,5.91133748390632
252.5,5.89115376731908
252.6,5.87096426051923
252.7,5.85076894803699
252.8,5.83056781431399
252.9,5.81036084370299
253,5.79014802046765
253.1,5.76992932878224
253.2,5.74970475273141
253.3,5.72947427630992
253.4,5.70923788342234
253.5,5.68899555788288
253.6,5.66874728341504
253.7,5.64849304365143
253.8,5.62823282213346
253.9,5.60796660231108
254,5.58769436754257
254.1,5.56741610109425
254.2,5.54713178614024
254.3,5.52684140576218
254.4,5.506544942949
254.5,5.48624238059666
254.6,5.46593370150789
254.7,5.44561888839195
254.8,5.42529792386436
254.9,5.40497079044665
255,5.38463747056613
255.1,5.36429794655561
255.2,5.34395220065317
255.3,5.32360021500192
255.4,5.30324197164971
255.5,5.28287745254891
255.6,5.26250663955616
255.7,5.24212951443214
255.8,5.2217460588413
255.9,5.2013562543516
256,5.18096008243431
256.1,5.16055752446372
256.2,5.14014856171696
256.3,5.11973317537366
256.4,5.09931134651582
256.5,5.07888305612748
256.6,5.05844828509454
256.7,5.03800701420448
256.8,5.01755922414615
256.9,4.99710489550952
257,4.97664400878546
257.1,4.95617654436548
257.2,4.93570248254152
257.3,4.9152218035057
257.4,4.8947344873501
257.5,4.87424051406656
257.6,4.85373986354634
257.7,4.83323251558006
257.8,4.81271844985732
257.9,4.79219764596658
258,4.77167008339488
258.1,4.75113574152761
258.2,4.73059459964835
258.3,4.71004663693859
258.4,4.68949183247754
258.5,4.66893016524191
258.6,4.64836161410566
258.7,4.62778615783987
258.8,4.60720377511242
258.9,4.58661444448785
259,4.56601814442717
259.1,4.54541485328754
259.2,4.52480454932221
259.3,4.50418721068018
259.4,4.48356281540612
259.5,4.46293134144008
259.6,4.44229276661729
259.7,4.42164706866805
259.8,4.40099422521743
259.9,4.38033421378514
260,4.35966701178533
260.1,4.33899259652634
260.2,4.31831094521064
260.3,4.29762203493447
260.4,4.27692584268782
260.5,4.25622234535416
260.6,4.23551151971025
260.7,4.21479334242603
260.8,4.19406779006435
260.9,4.1733348390809
261,4.15259446582398
261.1,4.13184664653429
261.2,4.11109135734488
261.3,4.09032857428085
261.4,4.0695582732593
261.5,4.04878043008912
261.6,4.02799502047082
261.7,4.00720201999643
261.8,3.98640140414924
261.9,3.96559314830376
262,3.94477722772555
262.1,3.92395361757101
262.2,3.90312229288736
262.3,3.88228322861235
262.4,3.86143639957427
262.5,3.84058178049171
262.6,3.81971934597349
262.7,3.79884907051851
262.8,3.77797092851561
262.9,3.75708489424348
263,3.73619094187053
263.1,3.71528904545476
263.2,3.69437917894369
263.3,3.67346131617416
263.4,3.65253543087235
263.5,3.6316014966536
263.6,3.61065948702229
263.7,3.58970937537183
263.8,3.56875113498449
263.9,3.54778473903132
264,3.52681016057212
264.1,3.50582737255528
264.2,3.4848363478178
264.3,3.46383705908511
264.4,3.44282947897107
264.5,3.42181357997791
264.6,3.40078933449608
264.7,3.37975671480432
264.8,3.35871569306949
264.9,3.33766624134659
265,3.31660833157868
265.1,3.29554193559683
265.2,3.27446702512014
265.3,3.25338357175562
265.4,3.23229154699824
265.5,3.21119092223084
265.6,3.19008166872416
265.7,3.16896375763679
265.8,3.14783716001515
265.9,3.12670184679353
266,3.10555778879407
266.1,3.08440495672669
266.2,3.06324332118922
266.3,3.04207285266729
266.4,3.02089352153446
266.5,2.99970529805216
266.6,2.97850815236971
266.7,2.95730205452445
266.8,2.93608697444162
266.9,2.91486288193456
267,2.89362974670466
267.1,2.87238753834143
267.2,2.85113622632259
267.3,2.82987578001406
267.4,2.80860616867013
267.5,2.78732736143346
267.6,2.76603932733516
267.7,2.74474203529492
267.8,2.72343545412105
267.9,2.70211955251063
268,2.68079429904957
268.1,2.65945966221272
268.2,2.63811561036405
268.3,2.61676211175667
268.4,2.59539913453303
268.5,2.57402664672504
268.6,2.55264461625415
268.7,2.53125301093162
268.8,2.50985179845853
268.9,2.48844094642604
269,2.46702042231554
269.1,2.44559019349874
269.2,2.42415022723801
269.3,2.40270049068638
269.4,2.38124095088788
269.5,2.35977157477769
269.6,2.3382923291823
269.7,2.31680318081981
269.8,2.29530409630007
269.9,2.27379504212495
270,2.2522759846886
270.1,2.2307468902776
270.2,2.20920772507138
270.3,2.18765845514231
270.4,2.16609904645608
270.5,2.14452946487189
270.6,2.12294967614274
270.7,2.10135964591583
270.8,2.07975933973271
270.9,2.05814872302969
271,2.03652776113809
271.1,2.01489641928457
271.2,1.99325466259156
271.3,1.97160245607744
271.4,1.94993976465703
271.5,1.92826655314186
271.6,1.90658278624052
271.7,1.88488842855913
271.8,1.86318344460165
271.9,1.84146779877036
272,1.81974145536617
272.1,1.79800437858895
272.2,1.77625653253816
272.3,1.75449788121313
272.4,1.73272838851355
272.5,1.71094801823991
272.6,1.6891567340939
272.7,1.66735449967899
272.8,1.64554127850079
272.9,1.62371703396767
273,1.60188172939114
273.1,1.58003532798638
273.2,1.55817779287277
273.3,1.53630908707438
273.4,1.51442917352068
273.5,1.49253801504694
273.6,1.47063557439474
273.7,1.44872181421261
273.8,1.42679669705655
273.9,1.40486018539078
274,1.3829122415882
274.1,1.36095282793095
274.2,1.33898190661118
274.3,1.31699943973157
274.4,1.29500538930607
274.5,1.27299971726053
274.6,1.25098238543329
274.7,1.22895335557597
274.8,1.20691258935401
274.9,1.18486004834751
275,1.16279569405204
275.1,1.14071948787918
275.2,1.11863139115731
275.3,1.09653136513226
275.4,1.07441937096824
275.5,1.05229536974862
275.6,1.03015932247658
275.7,1.00801119007595
275.8,0.985850933392032
275.9,0.963678513192481
276,0.941493890168119
276.1,0.919297024933736
276.2,0.897087878029036
276.3,0.87486640991941
276.4,0.852632580996924
276.5,0.830386351581175
276.6,0.808127681920178
276.7,0.785856532191377
276.8,0.763572862502492
276.9,0.741276632892469
277,0.718967803332544
277.1,0.696646333727289
277.2,0.674312183915583
277.3,0.651965313671407
277.4,0.629605682704988
277.5,0.607233250663908
277.6,0.584847977134158
277.7,0.562449821641178
277.8,0.540038743650815
277.9,0.517614702570566
278,0.495177657750687
278.1,0.472727568485271
278.2,0.450264394013468
278.3,0.42778809352053
278.4,0.405298626139077
278.5,0.382795950950132
278.6,0.360280026984449
278.7,0.337750813223943
278.8,0.315208268602676
278.9,0.292652352008048
279,0.270083022282067
279.1,0.247500238222715
279.2,0.224903958585382
279.3,0.20229414208393
279.4,0.179670747392077
279.5,0.157033733144776
279.6,0.13438305793957
279.7,0.11171868033805
279.8,0.0890405588671259
279.9,0.066348652020515
280,0.0436429182601285
280.1,0.0209233160173372
280.2,-0.00181019630528379
280.3,-0.0245576603324336
280.4,-0.0473191177146782
280.5,-0.0700946101271662
280.6,-0.0928841792680906
280.7,-0.115687866856904
280.8,-0.138505714632805
280.9,-0.161337764353248
281,-0.184184057792428
281.1,-0.207044636739626
281.2,-0.229919542997444
281.3,-0.25280881838028
281.4,-0.275712504712592
281.5,-0.298630643827276
281.6,-0.321563277564001
281.7,-0.344510447767573
281.8,-0.367472196286067
281.9,-0.390448564968814
282,-0.413439595664877
282.1,-0.436445330221526
282.2,-0.459465810482278
282.3,-0.482501078285004
282.4,-0.505551175459925
282.5,-0.528616143828007
282.6,-0.551696025199169
282.7,-0.574790861370202
282.8,-0.597900694122905
282.9,-0.621025565222078
283,-0.644165516413647
283.1,-0.667320589422745
283.2,-0.69049082595164
283.3,-0.713676267678026
283.4,-0.736876956252637
283.5,-0.76009293329704
283.6,-0.783324240401866
283.7,-0.80657091912489
283.8,-0.829833010988973
283.9,-0.853110557479646
284,-0.876403600042941
284.1,-0.899712180083515
284.2,-0.923036338962456
284.3,-0.946376117995077
284.4,-0.969731558448559
284.5,-0.993102701539785
284.6,-1.01648958843317
284.7,-1.03989226023831
284.8,-1.06331075800785
284.9,-1.08674512273525
285,-1.11019539535225
285.1,-1.13366161672631
285.2,-1.15714382765843
285.3,-1.18064206888123
285.4,-1.20415638105633
285.5,-1.22768680477178
285.6,-1.25123338053953
285.7,-1.27479614879323
285.8,-1.2983751498859
285.9,-1.32197042408721
286,-1.345582011581
286.1,-1.36920995246276
286.2,-1.39285428673707
286.3,-1.41651505431518
286.4,-1.44019229501232
286.5,-1.46388604854541
286.6,-1.48759635453013
286.7,-1.51132325247791
286.8,-1.53506678179379
286.9,-1.55882698177388
287,-1.58260389160271
287.1,-1.60639755035029
287.2,-1.63020799696915
287.3,-1.65403527029207
287.4,-1.67787940902929
287.5,-1.70174045176565
287.6,-1.72561843695775
287.7,-1.74951340293107
287.8,-1.77342538787731
287.9,-1.7973544298515
288,-1.82130056676913
288.1,-1.84526383640368
288.2,-1.86924427638315
288.3,-1.89324192418704
288.4,-1.91725681714368
288.5,-1.94128899242766
288.6,-1.96533848705687
288.7,-1.98940533788909
288.8,-2.01348958161901
288.9,-2.03759125477551
289,-2.06171039371874
289.1,-2.08584703463698
289.2,-2.11000121354338
289.3,-2.13417296627307
289.4,-2.15836232848003
289.5,-2.18256933563404
289.6,-2.20679402301765
289.7,-2.23103642572323
289.8,-2.25529657864954
289.9,-2.27957451649816
290,-2.30387027377074
290.1,-2.32818388476631
290.2,-2.35251538357781
290.3,-2.37686480408875
290.4,-2.40123217996971
290.5,-2.42561754467556
290.6,-2.45002093144233
290.7,-2.47444237328373
290.8,-2.49888190298781
290.9,-2.52333955311372
291,-2.54781535598843
291.1,-2.57230934370353
291.2,-2.59682154811184
291.3,-2.62135200082447
291.4,-2.64590073320697
291.5,-2.67046777637569
291.6,-2.69505316119484
291.7,-2.71965691827349
291.8,-2.74427907796219
291.9,-2.7689196703491
292,-2.79357872525655
292.1,-2.81825627223806
292.2,-2.84295234057493
292.3,-2.86766695927274
292.4,-2.89240015705771
292.5,-2.9171519623734
292.6,-2.94192240337727
292.7,-2.96671150793726
292.8,-2.99151930362837
292.9,-3.01634581772947
293,-3.04119107721939
293.1,-3.06605510877313
293.2,-3.09093793875872
293.3,-3.11583959323431
293.4,-3.14076009794442
293.5,-3.16569947831613
293.6,-3.19065775945552
293.7,-3.21563496614445
293.8,-3.2406311228373
293.9,-3.26564625365714
294,-3.29068038239215
294.1,-3.31573353249221
294.2,-3.34080572706535
294.3,-3.36589698887434
294.4,-3.39100734033309
294.5,-3.41613680350319
294.6,-3.44128540009041
294.7,-3.4664531514411
294.8,-3.4916400785388
294.9,-3.51684620200063
295,-3.54207154207378
295.1,-3.56731611863212
295.2,-3.59257995117252
295.3,-3.61786305881152
295.4,-3.64316546028167
295.5,-3.66848717392846
295.6,-3.69382821770636
295.7,-3.71918860917487
295.8,-3.74456836549559
295.9,-3.76996750342909
296,-3.79538603933132
296.1,-3.82082398914981
296.2,-3.84628136842
296.3,-3.87175819226225
296.4,-3.89725447537847
296.5,-3.92277023204842
296.6,-3.94830547612631
296.7,-3.9738602210372
296.8,-3.99943447977386
296.9,-4.02502826489319
297,-4.05064158851292
297.1,-4.07627446230824
297.2,-4.10192689750834
297.3,-4.12759890489312
297.4,-4.15329049478979
297.5,-4.17900167706953
297.6,-4.20473246114425
297.7,-4.23048285596314
297.8,-4.25625287000948
297.9,-4.28204251129729
298,-4.30785178736809
298.1,-4.33368070528797
298.2,-4.35952927164381
298.3,-4.38539749253988
298.4,-4.41128537359487
298.5,-4.43719291993919
298.6,-4.46312013621172
298.7,-4.48906702655616
298.8,-4.51503359461794
298.9,-4.54101984354132
299,-4.56702577596647
299.1,-4.59305139402622
299.2,-4.61909669934279
299.3,-4.64516169302494
299.4,-4.67124637566482
299.5,-4.69735074733513
299.6,-4.7234748075861
299.7,-4.7496185554428
299.8,-4.77578198940183
299.9,-4.80196510742806
300,-4.82816790695216
300.1,-4.85439038486816
300.2,-4.88063253753038
300.3,-4.90689436075045
300.4,-4.9331758497943
300.5,-4.95947699937979
300.6,-4.9857978036741
300.7,-5.01213825629078
300.8,-5.03849835028708
300.9,-5.06487807816123
301,-5.09127743184994
301.1,-5.11769640272584
301.2,-5.14413498159483
301.3,-5.1705931586939
301.4,-5.1970709236882
301.5,-5.22356826566829
301.6,-5.25008517314816
301.7,-5.27662163406298
301.8,-5.30317763576674
301.9,-5.32975316502957
302,-5.35634820803536
302.1,-5.3829627503798
302.2,-5.40959677706813
302.3,-5.43625027251288
302.4,-5.46292322053154
302.5,-5.48961560434447
302.6,-5.51632740657288
302.7,-5.54305860923664
302.8,-5.56980919375243
302.9,-5.59657914093176
303,-5.62336843097878
303.1,-5.65017704348822
303.2,-5.67700495744362
303.3,-5.70385215121586
303.4,-5.73071860256118
303.5,-5.7576042886192
303.6,-5.78450918591115
303.7,-5.81143327033832
303.8,-5.83837651718052
303.9,-5.8653389010943
304,-5.89232039611128
304.1,-5.91932097563673
304.2,-5.94634061244794
304.3,-5.97337927869291
304.4,-6.00043694588881
304.5,-6.02751358492076
304.6,-6.05460916604033
304.7,-6.08172365886401
304.8,-6.10885703237221
304.9,-6.13600925490814
305,-6.16318029417657
305.1,-6.19037011724266
305.2,-6.21757869053062
305.3,-6.24480597982298
305.4,-6.27205195025948
305.5,-6.29931656633606
305.6,-6.32659979190394
305.7,-6.35390159016867
305.8,-6.38122192368937
305.9,-6.40856075437783
306,-6.43591804349785
306.1,-6.46329375166456
306.2,-6.49068783884356
306.3,-6.51810026435034
306.4,-6.54553098684968
306.5,-6.5729799643552
306.6,-6.60044715422892
306.7,-6.62793251318059
306.8,-6.65543599726733
306.9,-6.68295756189328
307,-6.71049716180928
307.1,-6.7380547511126
307.2,-6.76563028324658
307.3,-6.79322371100048
307.4,-6.82083498650938
307.5,-6.84846406125391
307.6,-6.87611088606033
307.7,-6.90377541110037
307.8,-6.93145758589129
307.9,-6.95915735929593
308,-6.98687467952275
308.1,-7.01460949412606
308.2,-7.04236175000606
308.3,-7.07013139340916
308.4,-7.09791836992821
308.5,-7.12572262450274
308.6,-7.15354410141936
308.7,-7.18138274431209
308.8,-7.20923849616279
308.9,-7.23711129930172
309,-7.26500109540786
309.1,-7.2929078255096
309.2,-7.32083142998525
309.3,-7.34877184856358
309.4,-7.37672902032467
309.5,-7.40470288370051
309.6,-7.43269337647583
309.7,-7.46070043578868
309.8,-7.48872399813127
309.9,-7.516763999351
310,-7.54482037465125
310.1,-7.5728930585923
310.2,-7.60098198509221
310.3,-7.6290870874279
310.4,-7.65720829823627
310.5,-7.68534554951513
310.6,-7.71349877262445
310.7,-7.74166789828737
310.8,-7.76985285659142
310.9,-7.79805357698969
311,-7.82626998830212
311.1,-7.85450201871704
311.2,-7.88274959579221
311.3,-7.91101264645605
311.4,-7.93929109700915
311.5,-7.9675848731257
311.6,-7.99589389985507
311.7,-8.02421810162306
311.8,-8.0525574022334
311.9,-8.0809117248694
312,-8.10928099209549
312.1,-8.13766512585889
312.2,-8.16606404749112
312.3,-8.19447767770967
312.4,-8.2229059366198
312.5,-8.25134874371586
312.6,-8.27980601788352
312.7,-8.30827767740149
312.8,-8.33676363994322
312.9,-8.36526382257847
313,-8.39377814177517
313.1,-8.42230651340158
313.2,-8.45084885272814
313.3,-8.47940507442921
313.4,-8.50797509258497
313.5,-8.53655882068345
313.6,-8.56515617162265
313.7,-8.59376705771241
313.8,-8.6223913906765
313.9,-8.65102908165462
314,-8.67968004120445
314.1,-8.70834417930358
314.2,-8.73702140535188
314.3,-8.7657116281738
314.4,-8.79441475602037
314.5,-8.82313069657089
314.6,-8.8518593569354
314.7,-8.88060064365699
314.8,-8.90935446271408
314.9,-8.93812071952249
315,-8.96689931893748
315.1,-8.99569016525628
315.2,-9.02449316222031
315.3,-9.05330821301751
315.4,-9.0821352202846
315.5,-9.11097408610932
315.6,-9.13982471203287
315.7,-9.16868699905211
315.8,-9.19756084762197
315.9,-9.22644615765787
316,-9.25534282853797
316.1,-9.28425075910565
316.2,-9.31316984767182
316.3,-9.34209999201733
316.4,-9.37104108939546
316.5,-9.39999303653419
316.6,-9.42895572963878
316.7,-9.45792906439406
316.8,-9.48691293596694
316.9,-9.51590723900888
317,-9.54491186765825
317.1,-9.5739267155429
317.2,-9.60295167578253
317.3,-9.63198664099119
317.4,-9.6610315032798
317.5,-9.69008615425851
317.6,-9.71915048503935
317.7,-9.74822438623858
317.8,-9.77730774797922
317.9,-9.80640045989361
318,-9.8355024111258
318.1,-9.86461349033417
318.2,-9.89373358569382
318.3,-9.92286258489915
318.4,-9.95200037516638
318.5,-9.98114684323599
318.6,-10.0103018753753
318.7,-10.0394653573811
318.8,-10.0686371745818
318.9,-10.0978172118404
319,-10.1270053535566
319.1,-10.1562014836697
319.2,-10.1854054856611
319.3,-10.2146172425562
319.4,-10.2438366369279
319.5,-10.2730635508983
319.6,-10.3022978661418
319.7,-10.3315394638873
319.8,-10.3607882249209
319.9,-10.3900440295882
320,-10.4193067577972
320.1,-10.4485762890206
320.2,-10.4778525022983
320.3,-10.5071352762401
320.4,-10.5364244890282
320.5,-10.5657200184195
320.6,-10.5950217417486
320.7,-10.6243295359299
320.8,-10.6536432774605
320.9,-10.6829628424226
321,-10.7122881064859
321.1,-10.7416189449105
321.2,-10.7709552325487
321.3,-10.8002968438488
321.4,-10.8296436528568
321.5,-10.8589955332197
321.6,-10.8883523581868
321.7,-10.9177140006133
321.8,-10.9470803329624
321.9,-10.9764512273085
322,-11.0058265553392
322.1,-11.0352061883581
322.2,-11.0645899972873
322.3,-11.09397785267
322.4,-11.1233696246738
322.5,-11.1527651830924
322.6,-11.1821643973488
322.7,-11.2115671364977
322.8,-11.2409732692284
322.9,-11.2703826638673
323,-11.2997951883805
323.1,-11.3292107103767
323.2,-11.35862909711
323.3,-11.3880502154818
323.4,-11.4174739320448
323.5,-11.4469001130052
323.6,-11.4763286242256
323.7,-11.5057593312274
323.8,-11.5351920991934
323.9,-11.5646267929714
324,-11.5940632770767
324.1,-11.623501415695
324.2,-11.652941072685
324.3,-11.6823821115814
324.4,-11.7118243955982
324.5,-11.7412677876314
324.6,-11.7707121502621
324.7,-11.8001573457591
324.8,-11.8296032360825
324.9,-11.859049682886
325,-11.8884965475208
325.1,-11.9179436910386
325.2,-11.9473909741948
325.3,-11.9768382574509
325.4,-12.0062854009782
325.5,-12.035732264661
325.6,-12.0651787081004
325.7,-12.094624590617
325.8,-12.1240697712541
325.9,-12.1535141087818
326,-12.1829574616996
326.1,-12.2123996882411
326.2,-12.2418406463762
326.3,-12.2712801938156
326.4,-12.300718188014
326.5,-12.3301544861734
326.6,-12.3595889452477
326.7,-12.3890214219462
326.8,-12.4184517727375
326.9,-12.4478798538527
327,-12.4773055212896
327.1,-12.5067286308169
327.2,-12.5361490379783
327.3,-12.5655665980965
327.4,-12.594981166277
327.5,-12.6243925974126
327.6,-12.6538007461878
327.7,-12.6832054670832
327.8,-12.7126066143795
327.9,-12.7420040421626
328,-12.7713976043276
328.1,-12.8007871545831
328.2,-12.8301725464568
328.3,-12.8595536333002
328.4,-12.8889302682936
328.5,-12.9183023044498
328.6,-12.9476695946196
328.7,-12.9770319914973
328.8,-13.006389347626
328.9,-13.0357415154025
329,-13.065088347082
329.1,-13.0944296947844
329.2,-13.1237654104996
329.3,-13.153095346093
329.4,-13.1824193533114
329.5,-13.2117372837885
329.6,-13.241048989051
329.7,-13.2703543205236
329.8,-13.2996531295362
329.9,-13.3289452673308
330,-13.3582305850667
330.1,-13.3875089338261
330.2,-13.4167801646213
330.3,-13.4460441284012
330.4,-13.4753006760589
330.5,-13.5045496584371
330.6,-13.5337909263354
330.7,-13.5630243305172
330.8,-13.5922497217174
330.9,-13.6214669506494
331,-13.6506758680122
331.1,-13.6798763244981
331.2,-13.7090681708001
331.3,-13.7382512576187
331.4,-13.7674254356715
331.5,-13.7965905557007
331.6,-13.8257464684815
331.7,-13.8548930248285
331.8,-13.8840300756044
331.9,-13.9131574717295
332,-13.9422750641904
332.1,-13.9713827040477
332.2,-14.0004802424448
332.3,-14.0295675306169
332.4,-14.0586444199007
332.5,-14.0877107617436
332.6,-14.1167664077123
332.7,-14.1458112095029
332.8,-14.1748450189501
332.9,-14.2038676880363
333,-14.2328790689022
333.1,-14.2618790138587
333.2,-14.2908673753949
333.3,-14.3198440061881
333.4,-14.3488087591137
333.5,-14.3777614872572
333.6,-14.4067020439253
333.7,-14.4356302826555
333.8,-14.4645460572266
333.9,-14.4934492216706
334,-14.522339630284
334.1,-14.5512171376394
334.2,-14.5800815985966
334.3,-14.6089328683142
334.4,-14.6377708022615
334.5,-14.6665952562304
334.6,-14.6954060863474
334.7,-14.7242031490856
334.8,-14.7529863012775
334.9,-14.781755400127
335,-14.8105103032211
335.1,-14.8392508685439
335.2,-14.8679769544913
335.3,-14.896688419882
335.4,-14.9253851239697
335.5,-14.9540669264558
335.6,-14.982733687505
335.7,-15.0113852677591
335.8,-15.0400215283486
335.9,-15.068642330907
336,-15.0972475375847
336.1,-15.1258370110637
336.2,-15.1544106145716
336.3,-15.1829682118957
336.4,-15.2115096673972
336.5,-15.2400348460256
336.6,-15.2685436133323
336.7,-15.2970358354867
336.8,-15.3255113792929
336.9,-15.3539701122031
337,-15.3824119023301
337.1,-15.4108366184638
337.2,-15.4392441300871
337.3,-15.4676343073924
337.4,-15.4960070212953
337.5,-15.5243621434491
337.6,-15.5526995462622
337.7,-15.5810191029134
337.8,-15.6093206873678
337.9,-15.6376041743928
338,-15.6658694395734
338.1,-15.6941163593286
338.2,-15.7223448109257
338.3,-15.7505546724988
338.4,-15.7787458230664
338.5,-15.8069181425462
338.6,-15.8350715117689
338.7,-15.8632058124955
338.8,-15.8913209274352
338.9,-15.9194167402624
339,-15.9474931356317
339.1,-15.9755499991936
339.2,-16.0035872176121
339.3,-16.031604678582
339.4,-16.059602270845
339.5,-16.0875798842065
339.6,-16.1155374095518
339.7,-16.1434747388629
339.8,-16.1713917652337
339.9,-16.1992883828885
340,-16.2271644872011
340.1,-16.2550199747086
340.2,-16.2828547431267
340.3,-16.3106686913662
340.4,-16.3384617195519
340.5,-16.3662337290392
340.6,-16.3939846224294
340.7,-16.4217143035851
340.8,-16.4494226776478
340.9,-16.4771096510547
341,-16.5047751315551
341.1,-16.5324190282259
341.2,-16.5600412514881
341.3,-16.5876417131228
341.4,-16.6152203262857
341.5,-16.642777005525
341.6,-16.6703116667992
341.7,-16.6978242274906
341.8,-16.7253146064192
341.9,-16.7527827238586
342,-16.780228501553
342.1,-16.8076518627333
342.2,-16.8350527321302
342.3,-16.8624310359892
342.4,-16.8897867020856
342.5,-16.9171196597406
342.6,-16.9444298398351
342.7,-16.971717174824
342.8,-16.9989815987505
342.9,-17.0262230472601
343,-17.0534414576133
343.1,-17.080636768701
343.2,-17.1078089210595
343.3,-17.1349578568823
343.4,-17.1620835200316
343.5,-17.1891858560511
343.6,-17.2162648121808
343.7,-17.2433203373697
343.8,-17.2703523822867
343.9,-17.2973608993321
344,-17.3243458426502
344.1,-17.3513071681413
344.2,-17.3782448334728
344.3,-17.4051587980901
344.4,-17.4320490232274
344.5,-17.4589154719181
344.6,-17.4857581090043
344.7,-17.5125769011477
344.8,-17.5393718168409
344.9,-17.5661428264156
345,-17.5928899020497
345.1,-17.6196130177772
345.2,-17.6463121494977
345.3,-17.6729872749844
345.4,-17.6996383738917
345.5,-17.7262654277622
345.6,-17.7528684200341
345.7,-17.7794473360492
345.8,-17.8060021630588
345.9,-17.8325328902298
346,-17.8590395086512
346.1,-17.885522011339
346.2,-17.9119803932419
346.3,-17.938414651246
346.4,-17.9648247841793
346.5,-17.991210792816
346.6,-18.0175726798802
346.7,-18.0439104500495
346.8,-18.0702241099577
346.9,-18.0965136681979
347,-18.1227791353248
347.1,-18.1490205238563
347.2,-18.1752378482754
347.3,-18.2014311250311
347.4,-18.2276003725397
347.5,-18.2537456111845
347.6,-18.2798668633163
347.7,-18.3059641532531
347.8,-18.3320375072786
347.9,-18.3580869536422
348,-18.3841125225562
348.1,-18.4101142461949
348.2,-18.4360921586914
348.3,-18.4620462961353
348.4,-18.4879766965694
348.5,-18.5138833999861
348.6,-18.5397664483235
348.7,-18.5656258854611
348.8,-18.5914617572145
348.9,-18.6172741113309
349,-18.6430629974831
349.1,-18.6688284672637
349.2,-18.6945705741784
349.3,-18.7202893736395
349.4,-18.7459849229585
349.5,-18.7716572813387
349.6,-18.797306509867
349.7,-18.8229326715053
349.8,-18.8485358310824
349.9,-18.8741160552841
350,-18.8996734126437
350.1,-18.9252079735324
350.2,-18.9507198101487
350.3,-18.9762089965075
350.4,-19.0016756084291
350.5,-19.0271197235278
350.6,-19.0525414211996
350.7,-19.0779407826117
350.8,-19.1033178906874
350.9,-19.1286728300928
351,-19.1540056872238
351.1,-19.1793165501946
351.2,-19.2046055088229
351.3,-19.2298726546141
351.4,-19.2551180807462
351.5,-19.2803418820558
351.6,-19.3055441550234
351.7,-19.3307249977564
351.8,-19.3558845099728
351.9,-19.3810227929844
352,-19.4061399496808
352.1,-19.4312360845119
352.2,-19.4563113034703
352.3,-19.4813657140758
352.4,-19.5063994253545
352.5,-19.5314125478187
352.6,-19.5564051934504
352.7,-19.5813774756846
352.8,-19.6063295093895
352.9,-19.6312614108451
353,-19.6561732977229
353.1,-19.6810652890677
353.2,-19.7059375052783
353.3,-19.7307900680857
353.4,-19.7556231005318
353.5,-19.7804367269485
353.6,-19.8052310729373
353.7,-19.8300062653472
353.8,-19.8547624322538
353.9,-19.8794997029392
354,-19.9042182078671
354.1,-19.9289180786585
354.2,-19.9535994480714
354.3,-19.9782624499818
354.4,-20.0029072193596
354.5,-20.0275338922434
354.6,-20.0521426057173
354.7,-20.0767334978894
354.8,-20.1013067078697
354.9,-20.1258623757451
355,-20.1504006425993
355.1,-20.1749216504597
355.2,-20.1994255421584
355.3,-20.2239124614071
355.4,-20.2483825528003
355.5,-20.2728359617824
355.6,-20.2972728346132
355.7,-20.3216933183391
355.8,-20.3460975607673
355.9,-20.3704857104418
356,-20.3948579166196
356.1,-20.419214329246
356.2,-20.4435550989306
356.3,-20.4678803769229
356.4,-20.4921903150877
356.5,-20.5164850658809
356.6,-20.5407647823252
356.7,-20.5650296179853
356.8,-20.5892797269438
356.9,-20.613515263777
357,-20.6377363835302
357.1,-20.6619432416938
357.2,-20.6861359941784
357.3,-20.7103147972917
357.4,-20.734479807656
357.5,-20.7586311823045
357.6,-20.7827690786517
357.7,-20.8068936543789
357.8,-20.8310050674087
357.9,-20.8551034759109
358,-20.8791890382941
358.1,-20.9032619131804
358.2,-20.9273222593759
358.3,-20.9513702358447
358.4,-20.9754060016868
358.5,-20.999429716116
358.6,-21.0234415384379
358.7,-21.0474416280268
358.8,-21.0714301443031
358.9,-21.0954072467135
359,-21.1193730947055
359.1,-21.1433278477032
359.2,-21.1672716650885
359.3,-21.1912047061823
359.4,-21.2151271302225
359.5,-21.23903909634
359.6,-21.2629407635375
359.7,-21.2868322906707
359.8,-21.310713836429
359.9,-21.3345855593134
360,-21.3584476176162
360.1,-21.382300169401
360.2,-21.4061433724837
360.3,-21.4299773844131
360.4,-21.4538023624517
360.5,-21.4776184635589
360.6,-21.5014258443694
360.7,-21.5252246611732
360.8,-21.5490150698993
360.9,-21.572797226101
361,-21.5965712849372
361.1,-21.6203374011528
361.2,-21.6440957290616
361.3,-21.667846422531
361.4,-21.6915896349664
361.5,-21.7153255192937
361.6,-21.739054227943
361.7,-21.7627759128332
361.8,-21.7864907253564
361.9,-21.8101988163636
362,-21.8339003361494
362.1,-21.8575954344376
362.2,-21.8812842603671
362.3,-21.9049669624779
362.4,-21.9286436886977
362.5,-21.9523145863282
362.6,-21.9759798020323
362.7,-21.9996394818215
362.8,-22.0232937710433
362.9,-22.0469428143692
363,-22.0705867557829
363.1,-22.0942257385685
363.2,-22.1178599052999
363.3,-22.1414893978292
363.4,-22.1651143572766
363.5,-22.1887349240196
363.6,-22.2123512376837
363.7,-22.2359634371319
363.8,-22.2595716604561
363.9,-22.2831760449671
364,-22.3067767271866
364.1,-22.3303738428381
364.2,-22.3539675268392
364.3,-22.3775579132931
364.4,-22.4011451354815
364.5,-22.4247293258569
364.6,-22.4483106160357
364.7,-22.4718891367915
364.8,-22.4954650180485
364.9,-22.5190383888754
365,-22.5426093774793
365.1,-22.5661781112005
365.2,-22.5897447165067
365.3,-22.6133093189881
365.4,-22.6368720433529
365.5,-22.6604330134221
365.6,-22.6839923521262
365.7,-22.7075501815
365.8,-22.7311066226802
365.9,-22.7546617959009
366,-22.7782158204908
366.1,-22.8017688148709
366.2,-22.8253208965505
366.3,-22.8488721821252
366.4,-22.872422787275
366.5,-22.8959728267624
366.6,-22.9195224144309
366.7,-22.943071663203
366.8,-22.9666206850789
366.9,-22.9901695911357
367,-23.013718491527
367.1,-23.0372674954818
367.2,-23.0608167113042
367.3,-23.0843662463735
367.4,-23.1079162071441
367.5,-23.1314666991458
367.6,-23.1550178269846
367.7,-23.1785696943428
367.8,-23.2021224039805
367.9,-23.2256760577363
368,-23.249230756529
368.1,-23.2727866003585
368.2,-23.2963436883081
368.3,-23.3199021185455
368.4,-23.3434619883258
368.5,-23.3670233939927
368.6,-23.3905864309815
368.7,-23.4141511938211
368.8,-23.4377177761372
368.9,-23.4612862706547
369,-23.4848567692009
369.1,-23.5084293627085
369.2,-23.5320041412188
369.3,-23.5555811938851
369.4,-23.5791606089762
369.5,-23.6027424738806
369.6,-23.6263268751101
369.7,-23.6499138983033
369.8,-23.6735036282293
369.9,-23.6970961487927
370,-23.7206915430377
370.1,-23.7442898931522
370.2,-23.7678912804722
370.3,-23.7914957854864
370.4,-23.8151034878412
370.5,-23.8387144663454
370.6,-23.8623287989749
370.7,-23.8859465628778
370.8,-23.9095678343793
370.9,-23.9331926889862
371,-23.9568212013931
371.1,-23.9804534454881
371.2,-24.0040894943573
371.3,-24.0277294202899
371.4,-24.0513732947834
371.5,-24.0750211885502
371.6,-24.0986731715228
371.7,-24.1223293128593
371.8,-24.1459896809488
371.9,-24.1696543434171
372,-24.1933233671332
372.1,-24.2169968182145
372.2,-24.2406747620331
372.3,-24.2643572632211
372.4,-24.2880443856771
372.5,-24.3117361925711
372.6,-24.3354327463515
372.7,-24.3591341087517
372.8,-24.3828403407952
372.9,-24.4065515028014
373,-24.4302676543911
373.1,-24.453988854494
373.2,-24.4777151613544
373.3,-24.5014466325367
373.4,-24.5251833249316
373.5,-24.5489252947623
373.6,-24.5726725975909
373.7,-24.5964252883241
373.8,-24.6201834212198
373.9,-24.6439470498926
374,-24.6677162273202
374.1,-24.6914910058489
374.2,-24.7152714372001
374.3,-24.7390575724775
374.4,-24.7628494621721
374.5,-24.7866471561674
374.6,-24.810450703746
374.7,-24.8342601535957
374.8,-24.8580755538159
374.9,-24.8818969519231
375,-24.9057243948563
375.1,-24.9295579289833
375.2,-24.953397600107
375.3,-24.9772434534708
375.4,-25.0010955337645
375.5,-25.02495388513
375.6,-25.0488185511674
375.7,-25.0726895749394
375.8,-25.0965669989784
375.9,-25.1204508652927
376,-25.144341215371
376.1,-25.1682380901875
376.2,-25.1921415302078
376.3,-25.2160515753947
376.4,-25.2399682652139
376.5,-25.2638916386391
376.6,-25.2878217341566
376.7,-25.3117585897718
376.8,-25.3357022430136
376.9,-25.3596527309407
377,-25.3836100901458
377.1,-25.4075743567614
377.2,-25.4315455664644
377.3,-25.4555237544814
377.4,-25.479508955594
377.5,-25.5035012041432
377.6,-25.5275005340348
377.7,-25.551506978744
377.8,-25.5755205713205
377.9,-25.5995413443931
378,-25.6235693301744
378.1,-25.6476045604657
378.2,-25.6716470666615
378.3,-25.6956968797542
378.4,-25.7197540303386
378.5,-25.7438185486163
378.6,-25.7678904644004
378.7,-25.7919698071199
378.8,-25.8160566058236
378.9,-25.8401508891852
379,-25.864252685507
379.1,-25.8883620227243
379.2,-25.9124789284095
379.3,-25.9366034297764
379.4,-25.9607355536843
379.5,-25.9848753266418
379.6,-26.0090227748111
379.7,-26.0331779240115
379.8,-26.0573407997239
379.9,-26.0815114270943
380,-26.1056898309378
380.1,-26.1298760357419
380.2,-26.1540700656709
380.3,-26.1782719445693
380.4,-26.2024816959653
380.5,-26.2266993430745
380.6,-26.2509249088036
380.7,-26.2751584157536
380.8,-26.2993998862236
380.9,-26.3236493422142
381,-26.3479068054306
381.1,-26.3721722972862
381.2,-26.3964458389058
381.3,-26.4207274511291
381.4,-26.4450171545135
381.5,-26.4693149693378
381.6,-26.493620915605
381.7,-26.5179350130454
381.8,-26.5422572811199
381.9,-26.566587739023
382,-26.5909264056857
382.1,-26.6152732997785
382.2,-26.6396284397145
382.3,-26.6639918436518
382.4,-26.6883635294973
382.5,-26.7127435149084
382.6,-26.7371318172968
382.7,-26.7615284538307
382.8,-26.7859334414375
382.9,-26.810346796807
383,-26.8347685363936
383.1,-26.8591986764191
383.2,-26.8836372328753
383.3,-26.9080842215267
383.4,-26.932539657913
383.5,-26.9570035573514
383.6,-26.9814759349396
383.7,-27.0059568055577
383.8,-27.0304461838709
383.9,-27.0549440843318
384,-27.0794505211836
384.1,-27.1039655084617
384.2,-27.1284890599959
384.3,-27.1530211894129
384.4,-27.1775619101386
384.5,-27.2021112354008
384.6,-27.2266691782312
384.7,-27.2512357514669
384.8,-27.2758109677538
384.9,-27.3003948395479
385,-27.324987379118
385.1,-27.3495885985477
385.2,-27.3741985097373
385.3,-27.3988171244062
385.4,-27.4234444540948
385.5,-27.4480805101666
385.6,-27.4727253038104
385.7,-27.4973788460427
385.8,-27.5220411477088
385.9,-27.5467122194851
386,-27.5713920718813
386.1,-27.5960807152427
386.2,-27.6207781597515
386.3,-27.6454844154288
386.4,-27.6701994921368
386.5,-27.6949233995808
386.6,-27.7196561473109
386.7,-27.7443977447237
386.8,-27.7691482010646
386.9,-27.7939075254294
387,-27.8186757267659
387.1,-27.8434528138762
387.2,-27.8682387954185
387.3,-27.8930336799087
387.4,-27.9178374757223
387.5,-27.9426501910958
387.6,-27.9674718341288
387.7,-27.9923024127859
387.8,-28.0171419348984
387.9,-28.0419904081658
388,-28.0668478401574
388.1,-28.0917142383147
388.2,-28.1165896099525
388.3,-28.1414739622609
388.4,-28.1663673023071
388.5,-28.1912696370365
388.6,-28.2161809732751
388.7,-28.2411013177306
388.8,-28.2660306769947
388.9,-28.2909690575444
389,-28.3159164657436
389.1,-28.3408729078446
389.2,-28.3658383899899
389.3,-28.3908129182141
389.4,-28.4157964984452
389.5,-28.4407891365064
389.6,-28.4657908381172
389.7,-28.490801608896
389.8,-28.5158214543606
389.9,-28.5408503799308
390,-28.5658883909292
390.1,-28.5909354925834
390.2,-28.6159916900268
390.3,-28.6410569883011
390.4,-28.6661313923574
390.5,-28.6912149070578
390.6,-28.7163075371771
390.7,-28.7414092874038
390.8,-28.7665201623423
390.9,-28.7916401665144
391,-28.8167693043605
391.1,-28.8419075802412
391.2,-28.8670549984391
391.3,-28.89221156316
391.4,-28.9173772785349
391.5,-28.9425521486208
391.6,-28.9677361774032
391.7,-28.9929293687967
391.8,-29.0181317266468
391.9,-29.0433432547317
392,-29.0685639567636
392.1,-29.0937938363905
392.2,-29.119032897197
392.3,-29.1442811427064
392.4,-29.1695385763817
392.5,-29.1948052016279
392.6,-29.2200810217925
392.7,-29.2453660401679
392.8,-29.2706602599919
392.9,-29.2959636844501
393,-29.321276316677
393.1,-29.3465981597573
393.2,-29.3719292167277
393.3,-29.3972694905781
393.4,-29.4226189842532
393.5,-29.4479777006539
393.6,-29.4733456426388
393.7,-29.498722813026
393.8,-29.5241092145939
393.9,-29.5495048500828
394,-29.5749097221967
394.1,-29.6003238336044
394.2,-29.6257471869414
394.3,-29.6511797848104
394.4,-29.6766216297838
394.5,-29.7020727244046
394.6,-29.7275330711876
394.7,-29.7530026726217
394.8,-29.7784815311701
394.9,-29.8039696492729
395,-29.8294670293474
395.1,-29.8549736737906
395.2,-29.88048958498
395.3,-29.906014765275
395.4,-29.9315492170187
395.5,-29.9570929425385
395.6,-29.9826459441483
395.7,-30.0082082241496
395.8,-30.0337797848327
395.9,-30.0593606284785
396,-30.0849507573593
396.1,-30.1105501737408
396.2,-30.136158879883
396.3,-30.161776878042
396.4,-30.187404170471
396.5,-30.2130407594217
396.6,-30.2386866471459
396.7,-30.2643418358964
396.8,-30.2900063279293
396.9,-30.3156801255043
397,-30.3413632308866
397.1,-30.367055646348
397.2,-30.3927573741682
397.3,-30.4184684166367
397.4,-30.4441887760532
397.5,-30.4699184547298
397.6,-30.4956574549916
397.7,-30.5214057791786
397.8,-30.5471634296467
397.9,-30.572930408769
398,-30.5987067189374
398.1,-30.6244923625634
398.2,-30.6502873420799
398.3,-30.676091659942
398.4,-30.7019053186289
398.5,-30.7277283206448
398.6,-30.7535606685202
398.7,-30.7794023648129
398.8,-30.8052534121097
398.9,-30.8311138130278
399,-30.8569835702154
399.1,-30.8828626863535
399.2,-30.9087511641568
399.3,-30.9346490063752
399.4,-30.9605562157951
399.5,-30.9864727952402
399.6,-31.0123987475734
399.7,-31.0383340756974
399.8,-31.064278782556
399.9,-31.0902328711357
400,-31.1161963444666
400.1,-31.1421692056241
400.2,-31.1681514577292
400.3,-31.1941431039502
400.4,-31.2201441475041
400.5,-31.2461545916573
400.6,-31.2721744397272
400.7,-31.298203695083
400.8,-31.3242423611472
400.9,-31.3502904413966
401,-31.3763479393632
401.1,-31.4024148586361
401.2,-31.4284912028618
401.3,-31.4545769757458
401.4,-31.4806721810534
401.5,-31.5067768226114
401.6,-31.5328909043088
401.7,-31.5590144300979
401.8,-31.5851474039957
401.9,-31.6112898300844
402,-31.6374417125132
402.1,-31.6636030554989
402.2,-31.6897738633274
402.3,-31.7159541403543
402.4,-31.7421438910062
402.5,-31.7683431197818
402.6,-31.7945518312531
402.7,-31.8207700300662
402.8,-31.8469977209424
402.9,-31.8732349086792
403,-31.8994815981516
403.1,-31.9257377943126
403.2,-31.9520035021951
403.3,-31.9782787269122
403.4,-32.0045634736582
403.5,-32.03085774771
403.6,-32.0571615544276
403.7,-32.0834748992558
403.8,-32.1097977877244
403.9,-32.1361302254497
404,-32.1624722181353
404.1,-32.188823771573
404.2,-32.2151848916439
404.3,-32.2415555843194
404.4,-32.2679358556619
404.5,-32.2943257118258
404.6,-32.3207251590587
404.7,-32.3471342037019
404.8,-32.3735528521918
404.9,-32.3999811110607
405,-32.4264189869372
405.1,-32.4528664865476
405.2,-32.4793236167167
405.3,-32.5057903843686
405.4,-32.5322667965278
405.5,-32.5587528603197
405.6,-32.5852485829717
405.7,-32.6117539718139
405.8,-32.6382690342805
405.9,-32.6647937779097
406,-32.6913282103455
406.1,-32.7178723393379
406.2,-32.7444261727439
406.3,-32.7709897185284
406.4,-32.7975629847649
406.5,-32.8241459796366
406.6,-32.8507387114368
406.7,-32.8773411885698
406.8,-32.9039534195518
406.9,-32.9305754130116
407,-32.9572071776915
407.1,-32.9838487224478
407.2,-33.0105000562518
407.3,-33.0371611881903
407.4,-33.0638321274669
407.5,-33.0905128834019
407.6,-33.1172034654338
407.7,-33.1439038831198
407.8,-33.170614146136
407.9,-33.1973342642789
408,-33.2240642474657
408.1,-33.2508041057349
408.2,-33.2775538492474
408.3,-33.3043134882866
408.4,-33.3310830332596
408.5,-33.3578624946977
408.6,-33.384651883257
408.7,-33.411451209719
408.8,-33.4382604849915
408.9,-33.4650797201091
409,-33.4919089262335
409.1,-33.518748114655
409.2,-33.5455972967923
409.3,-33.5724564841933
409.4,-33.599325688536
409.5,-33.626204921629
409.6,-33.6530941954118
409.7,-33.6799935219559
409.8,-33.7069029134647
409.9,-33.7338223822749
410,-33.7607519408564
410.1,-33.7876916018133
410.2,-33.8146413778843
410.3,-33.8416012819431
410.4,-33.8685713269991
410.5,-33.895551526198
410.6,-33.9225418928224
410.7,-33.9495424402918
410.8,-33.9765531821637
410.9,-34.0035741321341
411,-34.0306053040377
411.1,-34.0576467118484
411.2,-34.0846983696802
411.3,-34.1117602917872
411.4,-34.1388324925644
411.5,-34.1659149865481
411.6,-34.1930077884163
411.7,-34.2201109129894
411.8,-34.2472243752302
411.9,-34.274348190245
412,-34.3014823732832
412.1,-34.3286269397386
412.2,-34.3557819051494
412.3,-34.3829472851984
412.4,-34.4101230957141
412.5,-34.4373093526703
412.6,-34.4645060721872
412.7,-34.4917132705316
412.8,-34.518930964117
412.9,-34.5461591695043
413,-34.5733979034021
413.1,-34.6006471826672
413.2,-34.6279070243047
413.3,-34.6551774454686
413.4,-34.682458463462
413.5,-34.7097500957377
413.6,-34.7370523598983
413.7,-34.7643652736966
413.8,-34.791688855036
413.9,-34.8190231219711
414,-34.8463680927072
414.1,-34.8737237856015
414.2,-34.9010902191631
414.3,-34.9284674120532
414.4,-34.9558553830853
414.5,-34.9832541512261
414.6,-35.0106637355951
414.7,-35.0380841554652
414.8,-35.0655154302629
414.9,-35.0929575795689
415,-35.1204106231177
415.1,-35.1478745807987
415.2,-35.1753494726556
415.3,-35.2028353188875
415.4,-35.2303321398484
415.5,-35.2578399560481
415.6,-35.2853587881518
415.7,-35.3128886569808
415.8,-35.3404295835127
415.9,-35.3679815888812
416,-35.3955446943769
416.1,-35.4231189214472
416.2,-35.4507042916965
416.3,-35.4783008268863
416.4,-35.5059085489358
416.5,-35.5335274799217
416.6,-35.5611576420786
416.7,-35.5887990577991
416.8,-35.6164517496339
416.9,-35.6441157402922
417,-35.6717910526417
417.1,-35.6994777097088
417.2,-35.7271757346786
417.3,-35.7548851508955
417.4,-35.7826059818628
417.5,-35.8103382512433
417.6,-35.8380819828592
417.7,-35.8658372006921
417.8,-35.8936039288836
417.9,-35.9213821917349
418,-35.9491720137074
418.1,-35.9769734194222
418.2,-36.0047864336611
418.3,-36.0326110813658
418.4,-36.0604473876386
418.5,-36.0882953777421
418.6,-36.1161550770998
418.7,-36.1440265112958
418.8,-36.1719097060747
418.9,-36.1998046873424
419,-36.2277114811654
419.1,-36.2556301137714
419.2,-36.283560611549
419.3,-36.3115030010482
419.4,-36.33945730898
419.5,-36.3674235622168
419.6,-36.3954017877923
419.7,-36.4233920129015
419.8,-36.4513942649009
419.9,-36.4794085713085
420,-36.5074349598035
420.1,-36.5354734582272
420.2,-36.563524094582
420.3,-36.5915868970321
420.4,-36.6196618939032
420.5,-36.6477491136827
420.6,-36.6758485850198
420.7,-36.7039603367252
420.8,-36.7320843977712
420.9,-36.760220797292
421,-36.7883695645834
421.1,-36.816530729103
421.2,-36.8447043204697
421.3,-36.8728903684646
421.4,-36.9010889030302
421.5,-36.9292999542705
421.6,-36.9575235524515
421.7,-36.9857597280006
421.8,-37.0140085115068
421.9,-37.0422699337208
422,-37.0705440255546
422.1,-37.0988308180819
422.2,-37.1271303425379
422.3,-37.155442630319
422.4,-37.1837677129834
422.5,-37.2121056222503
422.6,-37.2404563900003
422.7,-37.2688200482754
422.8,-37.2971966292785
422.9,-37.3255861653741
423,-37.3539886890874
423.1,-37.3824042331049
423.2,-37.4108328302739
423.3,-37.4392745136027
423.4,-37.4677293162606
423.5,-37.4961972715773
423.6,-37.5246784130437
423.7,-37.553172774311
423.8,-37.5816803891911
423.9,-37.6102012916563
424,-37.6387355158394
424.1,-37.6672830960335
424.2,-37.6958440666921
424.3,-37.7244184624286
424.4,-37.7530063180166
424.5,-37.7816076683899
424.6,-37.8102225486419
424.7,-37.838850994026
424.8,-37.8674930399553
424.9,-37.8961487220024
425,-37.9248180758997
425.1,-37.9535011375388
425.2,-37.9821979429708
425.3,-38.0109085284059
425.4,-38.0396329302136
425.5,-38.0683711849223
425.6,-38.0971233292195
425.7,-38.1258893999515
425.8,-38.1546694341231
425.9,-38.1834634688981
426,-38.2122715415985
426.1,-38.2410936897049
426.2,-38.2699299508563
426.3,-38.2987803628497
426.4,-38.3276449636403
426.5,-38.3565237913412
426.6,-38.3854168842234
426.7,-38.4143242807159
426.8,-38.443246019405
426.9,-38.4721821390347
427,-38.5011326785065
427.1,-38.5300976768792
427.2,-38.5590771733688
427.3,-38.5880712073482
427.4,-38.6170798183477
427.5,-38.6461030460542
427.6,-38.6751409303115
427.7,-38.7041935111199
427.8,-38.7332608286365
427.9,-38.7623429231747
428,-38.7914398352042
428.1,-38.8205516053512
428.2,-38.8496782743976
428.3,-38.8788198832817
428.4,-38.9079764730975
428.5,-38.937148085095
428.6,-38.9663347606797
428.7,-38.995536541413
428.8,-39.0247534690114
428.9,-39.0539855853471
429,-39.0832329324477
429.1,-39.1124955524957
429.2,-39.141773487829
429.3,-39.1710667809405
429.4,-39.2003754744778
429.5,-39.2296996112437
429.6,-39.2590392341955
429.7,-39.2883943864454
429.8,-39.3177651112599
429.9,-39.3471514520603
430,-39.3765534524223
430.1,-39.4059711560757
430.2,-39.4354046069049
430.3,-39.4648538489483
430.4,-39.4943189263985
430.5,-39.5237998836024
430.6,-39.5532967650606
430.7,-39.5828096154277
430.8,-39.6123384795124
430.9,-39.6418834022772
431,-39.6714444288381
431.1,-39.7010216044652
431.2,-39.7306149745822
431.3,-39.7602245847663
431.4,-39.7898504807486
431.5,-39.8194927084135
431.6,-39.8491513137992
431.7,-39.8788263430973
431.8,-39.9085178426528
431.9,-39.9382258589646
432,-39.9679504386847
432.1,-39.9976916286186
432.2,-40.0274494757254
432.3,-40.0572240271177
432.4,-40.0870153300614
432.5,-40.116823431976
432.6,-40.1466483804346
432.7,-40.1764902231634
432.8,-40.2063490080427
432.9,-40.2362247831058
433,-40.2661175965401
433.1,-40.2960274966864
433.2,-40.3259545320391
433.3,-40.3558987512465
433.4,-40.3858602031106
433.5,-40.4158389365874
433.6,-40.4458350007866
433.7,-40.4758484449722
433.8,-40.5058793185618
433.9,-40.5359276711278
434,-40.5659935523964
434.1,-40.5960770122482
434.2,-40.6261781007186
434.3,-40.6562968679971
434.4,-40.6864333644283
434.5,-40.7165876405115
434.6,-40.746759746901
434.7,-40.776949734406
434.8,-40.8071576539913
434.9,-40.837383556777
435,-40.8676274940385
435.1,-40.8978895172074
435.2,-40.928169677871
435.3,-40.9584680277728
435.4,-40.9887846188125
435.5,-41.0191195030464
435.6,-41.0494727326877
435.7,-41.0798443601063
435.8,-41.1102344378294
435.9,-41.1406430185418
436,-41.1710701550858
436.1,-41.2015159004617
436.2,-41.231980307828
436.3,-41.2624634305016
436.4,-41.2929653219585
436.5,-41.3234860358333
436.6,-41.3540256259204
436.7,-41.3845841461737
436.8,-41.415161650707
436.9,-41.4457581937948
437,-41.4763738298719
437.1,-41.5070086135344
437.2,-41.5376625995398
437.3,-41.5683358428074
437.4,-41.5990283984186
437.5,-41.6297403216175
437.6,-41.6604716678112
437.7,-41.69122249257
437.8,-41.7219928516284
437.9,-41.7527828008849
438,-41.783592396403
438.1,-41.8144216944113
438.2,-41.8452707513041
438.3,-41.8761396236418
438.4,-41.9070283681518
438.5,-41.9379370417284
438.6,-41.9688657014339
438.7,-41.9998144044988
438.8,-42.0307832083222
438.9,-42.0617721704731
439,-42.0927813486901
439.1,-42.1238108008826
439.2,-42.154860585131
439.3,-42.1859307596878
439.4,-42.2170213829776
439.5,-42.2481325135984
439.6,-42.2792642103219
439.7,-42.3104165320941
439.8,-42.3415895380362
439.9,-42.3727832874451
440,-42.4039978397947
440.1,-42.4352332547357
440.2,-42.4664895920973
440.3,-42.497766911887
440.4,-42.5290652742921
440.5,-42.5603847396805
440.6,-42.5917253686009
440.7,-42.6230872217842
440.8,-42.6544703601441
440.9,-42.685874844778
441,-42.7173007369679
441.1,-42.7487480981812
441.2,-42.7802169900718
441.3,-42.8117074744806
441.4,-42.8432196134371
441.5,-42.8747534691595
441.6,-42.9063091040567
441.7,-42.9378865807284
441.8,-42.9694859619667
441.9,-43.0011073107565
442,-43.0327506902771
442.1,-43.0644161639031
442.2,-43.0961037952052
442.3,-43.1278136479518
442.4,-43.1595457861096
442.5,-43.1913002738449
442.6,-43.223077175525
442.7,-43.2548765557191
442.8,-43.2866984791994
442.9,-43.3185430109427
443,-43.3504102161309
443.1,-43.3823001601532
443.2,-43.4142129086065
443.3,-43.4461485272975
443.4,-43.4781070822431
443.5,-43.5100886396722
443.6,-43.5420932660269
443.7,-43.5741210279643
443.8,-43.606171992357
443.9,-43.6382462262952
444,-43.6703437970879
444.1,-43.7024647722643
444.2,-43.7346092195752
444.3,-43.7667772069946
444.4,-43.7989688027212
444.5,-43.8311840751799
444.6,-43.863423093023
444.7,-43.8956859251322
444.8,-43.9279726406201
444.9,-43.960283308832
445,-43.9926179993469
445.1,-44.0249767819794
445.2,-44.0573597267815
445.3,-44.0897669040443
445.4,-44.1221983842997
445.5,-44.1546542383217
445.6,-44.1871345371288
445.7,-44.2196393519853
445.8,-44.2521687544032
445.9,-44.2847228161442
446,-44.3173016092214
446.1,-44.3499052059012
446.2,-44.3825336787047
446.3,-44.4151871004105
446.4,-44.4478655440561
446.5,-44.4805690829401
446.6,-44.5132977906239
446.7,-44.5460517409334
446.8,-44.5788310079618
446.9,-44.6116356660712
447,-44.6444657898945
447.1,-44.6773214543379
447.2,-44.7102027345826
447.3,-44.7431097060872
447.4,-44.7760424445898
447.5,-44.8090010261104
447.6,-44.8419855269526
447.7,-44.8749960237062
447.8,-44.9080325932494
447.9,-44.9410953127508
448,-44.9741842596726
448.1,-45.007299511772
448.2,-45.040441147104
448.3,-45.0736092440231
448.4,-45.1068038811866
448.5,-45.1400251375567
448.6,-45.1732730924028
448.7,-45.206547825304
448.8,-45.2398494161515
448.9,-45.2731779451517
449,-45.306533492828
449.1,-45.3399161400241
449.2,-45.3733259679059
449.3,-45.4067630579647
449.4,-45.4402274920194
449.5,-45.4737193522192
449.6,-45.5072387210473
449.7,-45.5407856813225
449.8,-45.5743603162023
449.9,-45.6079627091853
450,-45.6415929441148
450.1,-45.6752511051811
450.2,-45.7089372769245
450.3,-45.7426515442381
450.4,-45.7763939923705
450.5,-45.8101647069295
450.6,-45.8439637738842
450.7,-45.8777912795687
450.8,-45.9116473106846
450.9,-45.9455319543044
451,-45.9794452978739
451.1,-46.0133874292162
451.2,-46.0473584365347
451.3,-46.0813584084161
451.4,-46.1153874338332
451.5,-46.1494456021483
451.6,-46.1835330031163
451.7,-46.2176497268887
451.8,-46.2517958640162
451.9,-46.285971505452
452,-46.3201767425552
452.1,-46.3544116670945
452.2,-46.3886763712513
452.3,-46.4229709476233
452.4,-46.4572954892279
452.5,-46.4916500895057
452.6,-46.5260348423234
452.7,-46.5604498419781
452.8,-46.5948951832014
452.9,-46.629370961162
453,-46.6638772714694
453.1,-46.6984142101774
453.2,-46.7329818737882
453.3,-46.7675803592564
453.4,-46.802209763992
453.5,-46.8368701858645
453.6,-46.8715617232063
453.7,-46.9062844748172
453.8,-46.941038539968
453.9,-46.9758240184041
454,-47.0106410103498
454.1,-47.0454896165119
454.2,-47.0803699380834
454.3,-47.1152820767479
454.4,-47.1502261346844
454.5,-47.1852022145704
454.6,-47.2202104195858
454.7,-47.2552508534168
454.8,-47.290323620261
454.9,-47.3254288248311
455,-47.3605665723589
455.1,-47.3957369685997
455.2,-47.4309401198361
455.3,-47.4661761328831
455.4,-47.5014451150919
455.5,-47.5367471743542
455.6,-47.5720824191068
455.7,-47.6074509583359
455.8,-47.6428529015808
455.9,-47.6782883589394
456,-47.7137574410729
456.1,-47.7492602592098
456.2,-47.7847969251497
456.3,-47.8203675512683
456.4,-47.8559722505225
456.5,-47.8916111364548
456.6,-47.9272843231978
456.7,-47.9629919254788
456.8,-47.9987340586242
456.9,-48.0345108385653
457,-48.0703223818421
457.1,-48.1061688056088
457.2,-48.1420502276379
457.3,-48.1779667663257
457.4,-48.2139185406964
457.5,-48.2499056704076
457.6,-48.2859282757561
457.7,-48.3219864776818
457.8,-48.3580803977726
457.9,-48.3942101582694
458,-48.4303758820714
458.1,-48.4665776927421
458.2,-48.5028157145129
458.3,-48.539090072289
458.4,-48.5754008916545
458.5,-48.6117482988777
458.6,-48.6481324209164
458.7,-48.6845533854232
458.8,-48.7210113207505
458.9,-48.7575063559563
459,-48.7940386208086
459.1,-48.8306082457918
459.2,-48.8672153621127
459.3,-48.9038601017052
459.4,-48.9405425972352
459.5,-48.9772629821061
459.6,-49.0140213904654
459.7,-49.05081795721
459.8,-49.0876528179915
459.9,-49.1245261092216
460,-49.1614379680781
460.1,-49.1983885325109
460.2,-49.2353779412473
460.3,-49.2724063337983
460.4,-49.3094738504639
460.5,-49.3465806323391
460.6,-49.3837268213193
460.7,-49.420912560107
460.8,-49.458137992218
460.9,-49.4954032619872
461,-49.5327085145733
461.1,-49.5700538959658
461.2,-49.6074395529907
461.3,-49.6448656333177
461.4,-49.6823322854651
461.5,-49.7198396588061
461.6,-49.757387903575
461.7,-49.7949771708742
461.8,-49.8326076126796
461.9,-49.8702793818476
462,-49.9079926321209
462.1,-49.9457475181348
462.2,-49.9835441954235
462.3,-50.0213828204267
462.4,-50.0592635504975
462.5,-50.0971865439073
462.6,-50.1351519598521
462.7,-50.173159958459
462.8,-50.2112107007936
462.9,-50.249304348867
463,-50.2874410656411
463.1,-50.3256210150361
463.2,-50.3638443619366
463.3,-50.4021112721991
463.4,-50.4404219126589
463.5,-50.4787764511361
463.6,-50.5171750564433
463.7,-50.5556178983918
463.8,-50.5941051477982
463.9,-50.6326369764924
464,-50.6712135573249
464.1,-50.7098350641736
464.2,-50.7485016719494
464.3,-50.7872135566037
464.4,-50.8259708951365
464.5,-50.8647738656038
464.6,-50.9036226471237
464.7,-50.9425174198837
464.8,-50.9814583651483
464.9,-51.0204456652667
465,-51.0594795036795
465.1,-51.098560064927
465.2,-51.1376875346554
465.3,-51.1768620996251
465.4,-51.2160839477172
465.5,-51.2553532679419
465.6,-51.2946702504473
465.7,-51.3340350865253
465.8,-51.373447968619
465.9,-51.4129090903304
466,-51.4524186464287
466.1,-51.4919768328587
466.2,-51.5315838467473
466.3,-51.5712398864115
466.4,-51.6109451513664
466.5,-51.6506998423331
466.6,-51.6905041612474
466.7,-51.7303583112667
466.8,-51.7702624967783
466.9,-51.8102169234078
467,-51.8502217980257
467.1,-51.8902773287573
467.2,-51.930383724991
467.3,-51.970541197386
467.4,-52.0107499578795
467.5,-52.0510102196948
467.6,-52.0913221973508
467.7,-52.1316861066705
467.8,-52.1721021647886
467.9,-52.2125705901595
468,-52.2530916025661
468.1,-52.2936654231287
468.2,-52.3342922743136
468.3,-52.374972379941
468.4,-52.4157059651941
468.5,-52.4564932566273
468.6,-52.4973344821744
468.7,-52.5382298711581
468.8,-52.5791796542998
468.9,-52.6201840637274
469,-52.661243332983
469.1,-52.7023576970318
469.2,-52.7435273922721
469.3,-52.7847526565447
469.4,-52.8260337291405
469.5,-52.8673708508093
469.6,-52.9087642637697
469.7,-52.950214211718
469.8,-52.9917209398373
469.9,-53.0332846948067
470,-53.0749057248103
470.1,-53.1165842795464
470.2,-53.1583206102356
470.3,-53.2001149696319
470.4,-53.2419676120326
470.5,-53.2838787932864
470.6,-53.325848770802
470.7,-53.3678778035574
470.8,-53.4099661521108
470.9,-53.4521140786101
471,-53.4943218468014
471.1,-53.5365897220384
471.2,-53.5789179712923
471.3,-53.6213068631622
471.4,-53.6637566678839
471.5,-53.7062676573402
471.6,-53.7488401050702
471.7,-53.7914742862788
471.8,-53.834170477846
471.9,-53.876928958338
472,-53.9197500080179
472.1,-53.9626339088542
472.2,-54.0055809445299
472.3,-54.0485914004524
472.4,-54.0916655637648
472.5,-54.1348037233559
472.6,-54.1780061698696
472.7,-54.2212731957142
472.8,-54.2646050950731
472.9,-54.3080021639156
473,-54.3514647000064
473.1,-54.3949930029159
473.2,-54.4385873740304
473.3,-54.482248116562
473.4,-54.5259755355579
473.5,-54.5697699379125
473.6,-54.6136316323781
473.7,-54.6575609295743
473.8,-54.7015581419968
473.9,-54.7456235840284
474,-54.7897575719499
474.1,-54.8339604239517
474.2,-54.8782324601419
474.3,-54.9225740025573
474.4,-54.9669853751742
474.5,-55.0114669039185
474.6,-55.0560189166771
474.7,-55.1006417433073
474.8,-55.1453357156475
474.9,-55.1901011675278
475,-55.2349384347792
475.1,-55.2798478552458
475.2,-55.3248297687962
475.3,-55.3698845173326
475.4,-55.4150124448
475.5,-55.4602138971972
475.6,-55.5054892225884
475.7,-55.5508387711138
475.8,-55.5962628949991
475.9,-55.6417619485658
476,-55.6873362882418
476.1,-55.7329862725725
476.2,-55.7787122622313
476.3,-55.8245146200294
476.4,-55.8703937109266
476.5,-55.9163499020412
476.6,-55.9623835626599
476.7,-56.0084950642494
476.8,-56.0546847804675
476.9,-56.1009530871726
477,-56.1473003624321
477.1,-56.1937269865337
477.2,-56.2402333419961
477.3,-56.2868198135797
477.4,-56.3334867882959
477.5,-56.3802346554164
477.6,-56.4270638064842
477.7,-56.4739746353237
477.8,-56.5209675380506
477.9,-56.5680429130817
478,-56.6152011611445
478.1,-56.6624426852873
478.2,-56.7097678908876
478.3,-56.7571771856632
478.4,-56.8046709796832
478.5,-56.8522496853756
478.6,-56.8999137175358
478.7,-56.9476634933366
478.8,-56.9954994323378
478.9,-57.0434219564965
479,-57.0914314901743
479.1,-57.1395284601468
479.2,-57.1877132956124
479.3,-57.2359864282015
479.4,-57.2843482919851
479.5,-57.3327993234834
479.6,-57.3813399616736
479.7,-57.4299706479989
479.8,-57.4786918263753
479.9,-57.5275039432009
480,-57.5764074473647
480.1,-57.6254027902535
480.2,-57.6744904257577
480.3,-57.7236708102798
480.4,-57.7729444027422
480.5,-57.8223116645942
480.6,-57.8717730598188
480.7,-57.9213290549383
480.8,-57.970980119022
480.9,-58.020726723692
481,-58.07056934313
481.1,-58.1205084540823
481.2,-58.1705445358661
481.3,-58.2206780703743
481.4,-58.2709095420808
481.5,-58.3212394380456
481.6,-58.3716682479206
481.7,-58.4221964639529
481.8,-58.4728245809884
481.9,-58.5235530964759
482,-58.5743825104712
482.1,-58.6253133256409
482.2,-58.676346047264
482.3,-58.7274811832354
482.4,-58.7787192440679
482.5,-58.8300607428943
482.6,-58.8815061954691
482.7,-58.9330561201699
482.8,-58.9847110379978
482.9,-59.0364714725783
483,-59.0883379501611
483.1,-59.1403109996202
483.2,-59.1923911524526
483.3,-59.2445789427776
483.4,-59.2968749073351
483.5,-59.3492795854829
483.6,-59.4017935191951
483.7,-59.4544172530582
483.8,-59.507151334268
483.9,-59.5599963126258
484,-59.6129527405331
484.1,-59.6660211729869
484.2,-59.7192021675737
484.3,-59.772496284463
484.4,-59.825904086401
484.5,-59.8794261387023
484.6,-59.9330630092433
484.7,-59.9868152684513
484.8,-60.040683489295
484.9,-60.0946682472749
485,-60.148770120413
485.1,-60.2029896892416
485.2,-60.2573275367892
485.3,-60.3117842485675
485.4,-60.3663604125585
485.5,-60.4210566191998
485.6,-60.4758734613683
485.7,-60.5308115343635
485.8,-60.5858714358901
485.9,-60.64105376604
486,-60.6963591272727
486.1,-60.7517881243955
486.2,-60.8073413645441
486.3,-60.8630194571576
486.4,-60.9188230139529
486.5,-60.9747526489031
486.6,-61.0308089782143
486.7,-61.0869926202988
486.8,-61.1433041957444
486.9,-61.1997443272852
487,-61.256313639774
487.1,-61.3130127601517
487.2,-61.3698423174129
487.3,-61.4268029425713
487.4,-61.4838952686247
487.5,-61.5411199305179
487.6,-61.5984775651058
487.7,-61.6559688111129
487.8,-61.7135943090964
487.9,-61.771354701398
488,-61.829250632095
488.1,-61.8872827469601
488.2,-61.9454516934183
488.3,-62.0037581204964
488.4,-62.0622026787678
488.5,-62.1207860202975
488.6,-62.1795087985939
488.7,-62.2383716685524
488.8,-62.2973752863952
488.9,-62.3565203096089
489,-62.4158073968826
489.1,-62.4752372080446
489.2,-62.5348104039955
489.3,-62.5945276466401
489.4,-62.6543895988228
489.5,-62.7143969242446
489.6,-62.7745502873807
489.7,-62.8348503534108
489.8,-62.8952977881474
489.9,-62.9558932579506
490,-63.0166374296349
490.1,-63.077530970378
490.2,-63.1385745476395
490.3,-63.1997688290694
490.4,-63.261114482407
490.5,-63.3226121753793
490.6,-63.3842625755992
490.7,-63.446066350462
490.8,-63.5080241670373
490.9,-63.5701366919581
491,-63.6324045913163
491.1,-63.6948285305297
491.2,-63.7574091742084
491.3,-63.8201471860446
491.4,-63.8830432286979
491.5,-63.9460979636597
491.6,-64.009312051105
491.7,-64.0726861497481
491.8,-64.1362209167147
491.9,-64.1999170073982
492,-64.2637750753004
492.1,-64.3277957718725
492.2,-64.391979746357
492.3,-64.4563276456255
492.4,-64.520840114012
492.5,-64.5855177931397
492.6,-64.6503613217612
492.7,-64.7153713355516
492.8,-64.7805484669045
492.9,-64.845893344762
493,-64.9114065944405
493.1,-64.9770888374221
493.2,-65.0429406911296
493.3,-65.1089627687068
493.4,-65.1751556788249
493.5,-65.2415200254644
493.6,-65.3080564076752
493.7,-65.374765419337
493.8,-65.4416476489206
493.9,-65.5087036792462
494,-65.5759340872324
494.1,-65.6433394436387
494.2,-65.7109203128264
494.3,-65.7786772524519
494.4,-65.8466108131628
494.5,-65.9147215383471
494.6,-65.9830099638756
494.7,-66.0514766177953
494.8,-66.1201220199969
494.9,-66.1889466818932
495,-66.257951106135
495.1,-66.3271357862929
495.2,-66.3965012065075
495.3,-66.4660478411403
495.4,-66.5357761544274
495.5,-66.6056866001291
495.6,-66.6757796211678
495.7,-66.7460556492562
495.8,-66.8165151045534
495.9,-66.8871583952245
496,-66.9579859170053
496.1,-67.028998052844
496.2,-67.1001951725352
496.3,-67.1715776322828
496.4,-67.2431457742363
496.5,-67.3148999260426
496.6,-67.3868404004115
496.7,-67.4589674946667
496.8,-67.5312814902766
496.9,-67.603782652371
497,-67.676471229254
497.1,-67.7493474519113
497.2,-67.8224115335057
497.3,-67.8956636688617
497.4,-67.9691040339399
497.5,-68.0427327853015
497.6,-68.1165500595643
497.7,-68.190555972848
497.8,-68.2647506202089
497.9,-68.3391340750648
498,-68.4137063886096
498.1,-68.4884675892172
498.2,-68.5634176818361
498.3,-68.6385566473724
498.4,-68.7138844420637
498.5,-68.7894009968409
498.6,-68.8651062166812
498.7,-68.9409999799499
498.8,-69.0170821377315
498.9,-69.0933525131512
499,-69.1698109006854
499.1,-69.2464570654617
499.2,-69.3232907425493
499.3,-69.4003116362383
499.4,-69.4775194193099
499.5,-69.554913732295
499.6,-69.6324941827247
499.7,-69.7102603443691
499.8,-69.7882117564671
499.9,-69.8663479229477
500,-69.9446683116395
500.1,-70.023172353473
500.2,-70.1018594416729
500.3,-70.1807289309416
500.4,-70.2597801366343
500.5,-70.3390123339254
500.6,-70.4184247569673
500.7,-70.4980165980404
500.8,-70.5777870066968
500.9,-70.6577350888965
501,-70.7378599061357
501.1,-70.8181604745701
501.2,-70.8986357641317
501.3,-70.9792846976394
501.4,-71.0601061499057
501.5,-71.1410989468372
501.6,-71.2222618645327
501.7,-71.303593628376
501.8,-71.385092912127
501.9,-71.4667583370099
502,-71.5485884707991
502.1,-71.6305818269051
502.2,-71.7127368634588
502.3,-71.7950519823967
502.4,-71.8775255285475
502.5,-71.9601557887193
502.6,-72.042940990791
502.7,-72.1258793028058
502.8,-72.2089688320701
502.9,-72.2922076242575
503,-72.3755936625184
503.1,-72.4591248665984
503.2,-72.5427990919631
503.3,-72.626614128934
503.4,-72.7105677018338
503.5,-72.7946574681442
503.6,-72.8788810176755
503.7,-72.9632358717512
503.8,-73.0477194824073
503.9,-73.1323292316085
504,-73.217062430482
504.1,-73.3019163185708
504.2,-73.3868880631075
504.3,-73.4719747583101
504.4,-73.5571734247013
504.5,-73.6424810084531
504.6,-73.7278943807575
504.7,-73.8134103372255
504.8,-73.8990255973152
504.9,-73.9847368037923
505,-74.0705405222218
505.1,-74.1564332404957
505.2,-74.2424113683958
505.3,-74.3284712371948
505.4,-74.4146090992969
505.5,-74.5008211279195
505.6,-74.5871034168179
505.7,-74.673451980055
505.8,-74.7598627518167
505.9,-74.8463315862767
506,-74.9328542575099
506.1,-75.0194264594585
506.2,-75.1060438059512
506.3,-75.192701830777
506.4,-75.2793959878172
506.5,-75.3661216512347
506.6,-75.4528741157238
506.7,-75.5396485968226
506.8,-75.6264402312879
506.9,-75.7132440775361
507,-75.8000551161501
507.1,-75.8868682504545
507.2,-75.9736783071608
507.3,-76.0604800370826
507.4,-76.1472681159248
507.5,-76.2340371451443
507.6,-76.3207816528873
507.7,-76.4074960950017
507.8,-76.4941748561264
507.9,-76.5808122508592
508,-76.6674025250028
508.1,-76.7539398568915
508.2,-76.8404183587967
508.3,-76.9268320784149
508.4,-77.0131750004361
508.5,-77.0994410481942
508.6,-77.1856240853997
508.7,-77.2717179179539
508.8,-77.3577162958457
508.9,-77.4436129151306
509,-77.5294014199903
509.1,-77.615075404875
509.2,-77.7006284167251
509.3,-77.7860539572736
509.4,-77.8713454854278
509.5,-77.9564964197287
509.6,-78.0415001408871
509.7,-78.1263499943963
509.8,-78.2110392932179
509.9,-78.2955613205407
510,-78.3799093326105
510.1,-78.464076561628
510.2,-78.5480562187136
510.3,-78.6318414969371
510.4,-78.7154255744084
510.5,-78.7988016174281
510.6,-78.8819627836945
510.7,-78.9649022255644
510.8,-79.0476130933641
510.9,-79.1300885387485
511,-79.2123217181035
511.1,-79.2943057959895
511.2,-79.3760339486219
511.3,-79.4574993673843
511.4,-79.5386952623721
511.5,-79.6196148659602
511.6,-79.7002514363936
511.7,-79.7805982613938
511.8,-79.8606486617786
511.9,-79.9403959950914
512,-80.019833659233
512.1,-80.0989550960943
512.2,-80.177753795184
512.3,-80.2562232972461
512.4,-80.3343571978644
512.5,-80.4121491510478
512.6,-80.489592872792
512.7,-80.5666821446134
512.8,-80.643410817051
512.9,-80.7197728131295
513,-80.7957621317826
513.1,-80.8713728512274
513.2,-80.9465991322902
513.3,-81.021435221675
513.4,-81.0958754551735
513.5,-81.1699142608103
513.6,-81.2435461619201
513.7,-81.3167657801524
513.8,-81.3895678383998
513.9,-81.4619471636465
514,-81.5338986897322
514.1,-81.6054174600289
514.2,-81.6764986300267
514.3,-81.747137469825
514.4,-81.8173293665271
514.5,-81.887069826534
514.6,-81.9563544777348
514.7,-82.0251790715926
514.8,-82.0935394851211
514.9,-82.161431722752
515,-82.2288519180903
515.1,-82.2957963355544
515.2,-82.3622613719023
515.3,-82.4282435576401
515.4,-82.4937395583117
515.5,-82.5587461756717
515.6,-82.6232603487361
515.7,-82.6872791547146
515.8,-82.7507998098213
515.9,-82.813819669965
516,-82.8763362313195
516.1,-82.9383471307724
516.2,-82.9998501462558
516.3,-83.0608431969565
516.4,-83.1213243434089
516.5,-83.1812917874708
516.6,-83.2407438721832
516.7,-83.2996790815159
516.8,-83.3580960400002
516.9,-83.4159935122516
517,-83.4733704023823
517.1,-83.5302257533077
517.2,-83.5865587459484
517.3,-83.6423686983292
517.4,-83.6976550645791
517.5,-83.7524174338342
517.6,-83.8066555290461
517.7,-83.8603692056989
517.8,-83.9135584504381
517.9,-83.9662233796127
518,-84.0183642377372
518.1,-84.0699813958722
518.2,-84.1210753499304
518.3,-84.1716467189098
518.4,-84.2216962430572
518.5,-84.2712247819666
518.6,-84.3202333126144
518.7,-84.3687229273359
518.8,-84.4166948317466
518.9,-84.4641503426107
519,-84.5110908856618
519.1,-84.5575179933778
519.2,-84.6034333027141
519.3,-84.6488385527991
519.4,-84.693735582594
519.5,-84.7381263285214
519.6,-84.7820128220658
519.7,-84.825397187349
519.8,-84.8682816386833
519.9,-84.9106684781067
520,-84.9525600929027
520.1,-84.9939589531066
520.2,-85.034867609004
520.3,-85.075288688621
520.4,-85.1152248952119
520.5,-85.1546790047454
520.6,-85.1936538633929
520.7,-85.2321523850199
520.8,-85.2701775486861
520.9,-85.307732396153
521,-85.3448200294039
521.1,-85.3814436081777
521.2,-85.4176063475178
521.3,-85.4533115153403
521.4,-85.4885624300213
521.5,-85.523362458006
521.6,-85.5577150114418
521.7,-85.5916235458368
521.8,-85.6250915577448
521.9,-85.6581225824791
522,-85.6907201918562
522.1,-85.7228879919702
522.2,-85.7546296210007
522.3,-85.7859487470531
